# Data associated with arXiv:2208.14002
# 
# Scale-free J-factor angular distribution, J_S(theta), of a nfw0-6rhos4e6 dark matter distribution (see Eq. 2.4 and the surrounding discussion)
# 
# Published: 8/25/22, Jack Runburg and Kenny Kiriu, contact: runburg@hawaii.edu
# 
# 
# -----------------------------------------------------------------
# 
# 	 tilde theta 		 | 	 tilde J s-wave 		 | 	 tilde J p-wave 		 | 	 tilde J d-wave 		 | 	 tilde J sommerfeld 
# 
# -----------------------------------------------------------------
1.000000000000000021e-03	5.213425338857725677e+01	4.064853551269899867e+01	1.288333875805614639e+02	3.343769131391793508e+02
1.021192151037671062e-03	5.195988113511179307e+01	4.063649542041842011e+01	1.288154989998327835e+02	3.313179345191955463e+02
1.042833409340945643e-03	5.178135557055500016e+01	4.062414512223505625e+01	1.287971499193151885e+02	3.281904882408659319e+02
1.064933292458827233e-03	5.159867615884874681e+01	4.061148228137074767e+01	1.287783369721383906e+02	3.249950290492761837e+02
1.087501519637659123e-03	5.141185598211465901e+01	4.059850535421500695e+01	1.287590580045998934e+02	3.217322912126065262e+02
1.110548016095517111e-03	5.122092422164408987e+01	4.058521376777552803e+01	1.287393123516878575e+02	3.184033352502705156e+02
1.134082917387199208e-03	5.102592924462695123e+01	4.057160814886443490e+01	1.287191011944296122e+02	3.150096051700693920e+02
1.158116573861711456e-03	5.082694253745080459e+01	4.055769062846818684e+01	1.286984280365855966e+02	3.115530000689574877e+02
1.182659555214217667e-03	5.062406387067030522e+01	4.054346525996209749e+01	1.286772993626906327e+02	3.080359661216580776e+02
1.207722655134462354e-03	5.041742834515599014e+01	4.052893861832642131e+01	1.286557255853702202e+02	3.044616188803433943e+02
1.233316896053688856e-03	5.020721648761421818e+01	4.051412070457796943e+01	1.286337224819518497e+02	3.008339133119448547e+02
1.259453533992170365e-03	4.999366966974214677e+01	4.049902640358424577e+01	1.286113135206447566e+02	2.971578947073856511e+02
1.286144063509461061e-03	4.977711574600166955e+01	4.048367804202960230e+01	1.285885339594658205e+02	2.934401001778829254e+02
1.313400222759557485e-03	4.955801693919160300e+01	4.046811041790201102e+01	1.285654389356855631e+02	2.896892784872007383e+02
1.341233998653187541e-03	4.933707559139192256e+01	4.045238243174198800e+01	1.285421222314418515e+02	2.859179157298194127e+02
1.369657632129505243e-03	4.911553900914283588e+01	4.043661191478535955e+01	1.285187725960178113e+02	2.821464702854478332e+02
1.398683623539492566e-03	4.889671313975616584e+01	4.042115335672138343e+01	1.284959615867951186e+02	2.784237732210299896e+02
1.428324738143458596e-03	4.867064915004142733e+01	4.040477812621470832e+01	1.284716956873031108e+02	2.746242485098605925e+02
1.458594011725036863e-03	4.844157629717364699e+01	4.038784753806685757e+01	1.284465462653137422e+02	2.708212827925341912e+02
1.489504756324154782e-03	4.820560491307867323e+01	4.036982677717689683e+01	1.284196382913802665e+02	2.669707879252741236e+02
1.521070566091505720e-03	4.797393567325198660e+01	4.035206409391342675e+01	1.283931587706264281e+02	2.632192355597919118e+02
1.553305323267072666e-03	4.774472099727671548e+01	4.033434822886989224e+01	1.283667663875419578e+02	2.595403569723119404e+02
1.586223204285366938e-03	4.751208507076029974e+01	4.031594006911780070e+01	1.283392574657463570e+02	2.558591539391910601e+02
1.619838686010041055e-03	4.728045835171912614e+01	4.029738178740608134e+01	1.283115132341116293e+02	2.522320802078574218e+02
1.654166552100628336e-03	4.704982688061804197e+01	4.027867173114274379e+01	1.282835308404413865e+02	2.486582315435986459e+02
1.689221899514206692e-03	4.682011904493726462e+01	4.025980542516196437e+01	1.282553032606162446e+02	2.451355017512312315e+02
1.725020145144853453e-03	4.659135359614980132e+01	4.024078274486486606e+01	1.282268298680742191e+02	2.416634602976201620e+02
1.761577032603788440e-03	4.636358216049407588e+01	4.022160530319987259e+01	1.281981125677528723e+02	2.382428030551166671e+02
1.798908639143220224e-03	4.613678699399447680e+01	4.020227123383510559e+01	1.281691481033653588e+02	2.348724021270765263e+02
1.837031382726912916e-03	4.591090042784846048e+01	4.018277604297691852e+01	1.281399293933802710e+02	2.315503080928195345e+02
1.875962029250603357e-03	4.568594109730696573e+01	4.016311961827189236e+01	1.281104557880064760e+02	2.282762630177632275e+02
1.915717699915417882e-03	4.546196077529207002e+01	4.014330355750895052e+01	1.280807292872529786e+02	2.250505542778553547e+02
1.956315878757565116e-03	4.523893812897411237e+01	4.012332539273371879e+01	1.280507461125429245e+02	2.218720228122695914e+02
1.997774420337589726e-03	4.501680929500818706e+01	4.010318062943359507e+01	1.280204991278089039e+02	2.187387633726060585e+02
2.040111557592579582e-03	4.479559279581517472e+01	4.008286917836401386e+01	1.279899876560064058e+02	2.156508053318440830e+02
2.083345909854779961e-03	4.457534048547599781e+01	4.006239285942238126e+01	1.279592138466586135e+02	2.126083170626671688e+02
2.127496491040134757e-03	4.435602763667102977e+01	4.004174923525988561e+01	1.279281735368728050e+02	2.096104444151322639e+02
2.172582718010372237e-03	4.413759405554421278e+01	4.002093384312405533e+01	1.278968595461835207e+02	2.066555173171188073e+02
2.218624419112281976e-03	4.392005815474539787e+01	3.999994661489857606e+01	1.278652711733897434e+02	2.037432803713915348e+02
2.265641842897974604e-03	4.370347180704885659e+01	3.997878952931525021e+01	1.278334107095386116e+02	2.008742820287909865e+02
2.313655667029933423e-03	4.348780707777138588e+01	3.995745970660629354e+01	1.278012734669345321e+02	1.980472077216936384e+02
2.362687007374795686e-03	4.327300730937339068e+01	3.993595234205432121e+01	1.277688521155824333e+02	1.952604627392868508e+02
2.412757427289825233e-03	4.305909081017998830e+01	3.991426730130962142e+01	1.277361458956898588e+02	1.925137976413327863e+02
2.463888947106213784e-03	4.284610941111321836e+01	3.989240666360351639e+01	1.277031572154449748e+02	1.898077214619102335e+02
2.516104053813336943e-03	4.263403215038715643e+01	3.987036742456043470e+01	1.276698809260968517e+02	1.871411615628151139e+02
2.569425710948245768e-03	4.242280578146464620e+01	3.984814509767387847e+01	1.276363097310603365e+02	1.845126888182897176e+02
2.623877368694733318e-03	4.221244850449478747e+01	3.982573965367374313e+01	1.276024428613178685e+02	1.819222463103594123e+02
2.679482974196439188e-03	4.200301205758834300e+01	3.980315331912466092e+01	1.275682828631226471e+02	1.793701417905742801e+02
2.736266982088478034e-03	4.179446262479730478e+01	3.978038275975075777e+01	1.275338240527824496e+02	1.768554589985733116e+02
2.794254365252289707e-03	4.158675024456973546e+01	3.975742335926608462e+01	1.274990590390368368e+02	1.743767330314759363e+02
2.853470625798387814e-03	4.137989301756032035e+01	3.973427474315248276e+01	1.274639869019118805e+02	1.719336727943351093e+02
2.913941806281861776e-03	4.117394252595504156e+01	3.971093916097925103e+01	1.274286102801811467e+02	1.695266715166592348e+02
2.975694501155571117e-03	4.096886227539940251e+01	3.968741294864738478e+01	1.273929229263766132e+02	1.671546665825398748e+02
3.038755868466027146e-03	4.076460546428749865e+01	3.966369166577756999e+01	1.273569174377781792e+02	1.648166107579567949e+02
3.103153641797168783e-03	4.056119009769928851e+01	3.963977531751628192e+01	1.273205929639409959e+02	1.625122243223087537e+02
3.168916142467233243e-03	4.035866754961712388e+01	3.961566636581805056e+01	1.272839522915207624e+02	1.602420238940164836e+02
3.236072291984112663e-03	4.015699881043358488e+01	3.959136083102988124e+01	1.272469885960966138e+02	1.580049316742936583e+02
3.304651624764658874e-03	3.995614012331629539e+01	3.956685429689022016e+01	1.272096944300988639e+02	1.557998954859362186e+02
3.374684301123556836e-03	3.975610939876482064e+01	3.954214662108004319e+01	1.271720688409700699e+02	1.536267834686082381e+02
3.446201120537424525e-03	3.955695774925752772e+01	3.951723994891951008e+01	1.271341145841935401e+02	1.514856932503527958e+02
3.519233535190044709e-03	3.935864381254857847e+01	3.949212988438343785e+01	1.270958241985432409e+02	1.493756858873110218e+02
3.593813663804625805e-03	3.916112676070923726e+01	3.946681200223788721e+01	1.270571901630870144e+02	1.472957295292785034e+02
3.669974305769219299e-03	3.896442441120626654e+01	3.944128636972057222e+01	1.270182115341484490e+02	1.452458147771949939e+02
3.747748955561452412e-03	3.876858757062730376e+01	3.941555577123133958e+01	1.269788913641350376e+02	1.432262145280100185e+02
3.827171817478984984e-03	3.857357267342304397e+01	3.938961547364431937e+01	1.269392215533734145e+02	1.412360033887802047e+02
3.908277820682117681e-03	3.837934170987448113e+01	3.936346113367944355e+01	1.268991945507990380e+02	1.392742917049658331e+02
3.991102634555192957e-03	3.818591241122928892e+01	3.933709283241917376e+01	1.268588093555617746e+02	1.373409351240536864e+02
4.075682684393532908e-03	3.799333521984723916e+01	3.931051316108075611e+01	1.268180690105779149e+02	1.354363099680563494e+02
4.162055167422817371e-03	3.780156452847015203e+01	3.928371653617770676e+01	1.267769645555327571e+02	1.335591901172031726e+02
4.250258069157961290e-03	3.761056503216825320e+01	3.925669861845788944e+01	1.267354883598920594e+02	1.317088128043321262e+02
4.340330180108637088e-03	3.742035437913391149e+01	3.922945954425830450e+01	1.266936393645244152e+02	1.298850847961741692e+02
4.432311112838861061e-03	3.723098260299845919e+01	3.920200232742040924e+01	1.266514208228924474e+02	1.280883429626856298e+02
4.526241319388085715e-03	3.704240219739494222e+01	3.917432153334070222e+01	1.266088232860151663e+02	1.263176652304314445e+02
4.622162109061505458e-03	3.685458045923105175e+01	3.914641286702482148e+01	1.265658390689675485e+02	1.245722811182826888e+02
4.720115666597336779e-03	3.666753495246319261e+01	3.911827651098798952e+01	1.265224670560564135e+02	1.228521659563713513e+02
4.820145070719144588e-03	3.648131526377869704e+01	3.908991561646595159e+01	1.264787106132599206e+02	1.211575578231973509e+02
4.922294313081310678e-03	3.629587212376491578e+01	3.906132367474085498e+01	1.264345592675748975e+02	1.194874950484860392e+02
5.026608317615998724e-03	3.611117532926603246e+01	3.903249618688242606e+01	1.263900051622162408e+02	1.178412163194035998e+02
5.133132960290130720e-03	3.592724236851731234e+01	3.900343333704737603e+01	1.263450470890784345e+02	1.162186043387349201e+02
5.241915089281041530e-03	3.574412232411277301e+01	3.897413848147041193e+01	1.262996885288799547e+02	1.146200118322444865e+02
5.353002545579732367e-03	3.556176431398493776e+01	3.894460530623192085e+01	1.262539184901834091e+02	1.130444858006026152e+02
5.466444184030696055e-03	3.538014052955099942e+01	3.891482968650311136e+01	1.262077291992124941e+02	1.114915052019792086e+02
5.582289894817666839e-03	3.519926838711025852e+01	3.888481187765027869e+01	1.261611193863432590e+02	1.099609230942685940e+02
5.700590625404708227e-03	3.501919642572703140e+01	3.885455536429724788e+01	1.261140926185471187e+02	1.084530943021484148e+02
5.821398402942216249e-03	3.483987228059529428e+01	3.882405298972965824e+01	1.260666369015746398e+02	1.069670433439867878e+02
5.944766357147824969e-03	3.466127044106646338e+01	3.879330004854645608e+01	1.260187440837472934e+02	1.055021334265116053e+02
6.070748743672167193e-03	3.448340825231637297e+01	3.876229677877229562e+01	1.259704127772697717e+02	1.040583557201204172e+02
6.199400967959818945e-03	3.430633367254525012e+01	3.873104687902606003e+01	1.259216466521952498e+02	1.026358840582846028e+02
6.330779609615908021e-03	3.412999298159440542e+01	3.869954310902927119e+01	1.258724330219136931e+02	1.012339260014848321e+02
6.464942447289089879e-03	3.395436287287005683e+01	3.866778141703512262e+01	1.258227639162471405e+02	9.985193491187466464e+01
6.601948484081890736e-03	3.377946062735665578e+01	3.863576222237487912e+01	1.257726379233835559e+02	9.848992716403982683e+01
6.741857973499477616e-03	3.360533357252379716e+01	3.860348938472438363e+01	1.257220587837064869e+02	9.714811257675917489e+01
6.884732445948405985e-03	3.343192676792882878e+01	3.857095483789724710e+01	1.256710127407375523e+02	9.582564989356855278e+01
7.030634735796891313e-03	3.325921901538371372e+01	3.853815392464317569e+01	1.256194914196464651e+02	9.452201211762300659e+01
7.179629009008595825e-03	3.308722753248285642e+01	3.850508689094412773e+01	1.255674931704573112e+02	9.323709627677426681e+01
7.331780791361950343e-03	3.291599898435831051e+01	3.847175770494239089e+01	1.255150217622511235e+02	9.197123161147260362e+01
7.487156997267587974e-03	3.274547732553047297e+01	3.843815828828642367e+01	1.254620627553625383e+02	9.072353376049795770e+01
7.645825959196438613e-03	3.257564337852222280e+01	3.840428476403012326e+01	1.254086080404460972e+02	8.949361574025182620e+01
7.807857457731475631e-03	3.240651430467648453e+01	3.837013758912505068e+01	1.253546559373000377e+02	8.828142739751005763e+01
7.973322752256328111e-03	3.223813606046303448e+01	3.833572089483637768e+01	1.253002102557485529e+02	8.708722726024275573e+01
8.142294612294233985e-03	3.207045162198833310e+01	3.830102576385034752e+01	1.252452553872789309e+02	8.591020544468132414e+01
8.314847349511189298e-03	3.190344374211739265e+01	3.826604750568619551e+01	1.251897826204488240e+02	8.474988511391008217e+01
8.491056850397209546e-03	3.173712952644270047e+01	3.823078645672811149e+01	1.251337900267961913e+02	8.360625993081889362e+01
8.671000609640279119e-03	3.157155419475555291e+01	3.819524698004468632e+01	1.250772814833774049e+02	8.247951676347149430e+01
8.854757764207504128e-03	3.140665985097835744e+01	3.815941997862425694e+01	1.250202405436170920e+02	8.136895562952453531e+01
9.042409128148579806e-03	3.124243109831870768e+01	3.812330175567396395e+01	1.249626588966235374e+02	8.027421472740769559e+01
9.234037228136720080e-03	3.107888499212290867e+01	3.808689293870907022e+01	1.249045346314051415e+02	7.919523479894958484e+01
9.429726339762870002e-03	3.091606596786765948e+01	3.805019804217954515e+01	1.248458716424761263e+02	7.813225543342213086e+01
9.629562524599030379e-03	3.075391538357857613e+01	3.801320689742838965e+01	1.247866520789480376e+02	7.708449262788836620e+01
9.833633668047030499e-03	3.059241960226801993e+01	3.797591498803856780e+01	1.247268669268369052e+02	7.605161802225734391e+01
1.004202951798940403e-02	3.043159563274496904e+01	3.793832284115666909e+01	1.246665140054579837e+02	7.503353621647953275e+01
1.025484172425938229e-02	3.027148709840716734e+01	3.790043515365736937e+01	1.246055972114136665e+02	7.403050438393152888e+01
1.047216387894729824e-02	3.011203471193795167e+01	3.786224184350272992e+01	1.245440979645365758e+02	7.304182075687177189e+01
1.069409155756119272e-02	2.995322651931795477e+01	3.782373942379689424e+01	1.244820077164845031e+02	7.206720389828596751e+01
1.092072236105970547e-02	2.979507948682408625e+01	3.778492867888464701e+01	1.244193242293035695e+02	7.110666525952129291e+01
1.115215595877575537e-02	2.963763638906143782e+01	3.774581433398007846e+01	1.243560512727078873e+02	7.016031775612702859e+01
1.138849413224978825e-02	2.948083740256133822e+01	3.770638468714097513e+01	1.242921683703439868e+02	6.922747473390664652e+01
1.162984081999205582e-02	2.932467217606853893e+01	3.766663581031054520e+01	1.242276664457688327e+02	6.830782219153482515e+01
1.187630216319339981e-02	2.916915764067303840e+01	3.762656847047006181e+01	1.241625429783551908e+02	6.740138850724530073e+01
1.212798655240480798e-02	2.901433567914279266e+01	3.758618765580574461e+01	1.240968017498394005e+02	6.650829576667763376e+01
1.238500467520621366e-02	2.886014604443789011e+01	3.754548214327317623e+01	1.240304217389508494e+02	6.562794697797906451e+01
1.264746956488544717e-02	2.870657990786627067e+01	3.750444876734698596e+01	1.239633941535930290e+02	6.476014424283090420e+01
1.291549665014883955e-02	2.855365417044552245e+01	3.746308842431893282e+01	1.238957163351442716e+02	6.390481901897143757e+01
1.318920380588532899e-02	2.840140979324059245e+01	3.742140571733258980e+01	1.238273915797498859e+02	6.306216331382686491e+01
1.346871140500627631e-02	2.824978620111599170e+01	3.737938756924114614e+01	1.237583966826207131e+02	6.223142625935393824e+01
1.375414237138396570e-02	2.809877601624705790e+01	3.733703081823601622e+01	1.236887225584870578e+02	6.141245052765798818e+01
1.404562223391196511e-02	2.794839611100254828e+01	3.729433655069300357e+01	1.236183663875477947e+02	6.060519995006535510e+01
1.434327918171109106e-02	2.779868649461273122e+01	3.725131014972353682e+01	1.235473318425347600e+02	5.980986049830038809e+01
1.464724412050539583e-02	2.764958636221765076e+01	3.720793924586545387e+01	1.234755952964357277e+02	5.902582744006215876e+01
1.495765073019278586e-02	2.750108971311451711e+01	3.716422094797535181e+01	1.234031475643415376e+02	5.825292931742532687e+01
1.527463552363575450e-02	2.735321339767258664e+01	3.712015598843854036e+01	1.233299852521069795e+02	5.749117489800838854e+01
1.559833790669801906e-02	2.720599643837963555e+01	3.707574817215800778e+01	1.232561104023115064e+02	5.674057678918504166e+01
1.592890023955338338e-02	2.705937789839072138e+01	3.703098444655316257e+01	1.231814979885416506e+02	5.600061487392817838e+01
1.626646789929399317e-02	2.691335308144870808e+01	3.698586202782963994e+01	1.231061385732027844e+02	5.527109673101434595e+01
1.661118934386526108e-02	2.676793882473850417e+01	3.694038238105070349e+01	1.230300289852541766e+02	5.455204287594904855e+01
1.696321617735579643e-02	2.662317312401004443e+01	3.689455121525549686e+01	1.229531725807574674e+02	5.384357250793422622e+01
1.732270321667098503e-02	2.647899501141964507e+01	3.684835491976383537e+01	1.228755429328437430e+02	5.314515531932361370e+01
1.768980855961942850e-02	2.633540102553212492e+01	3.680179002656544895e+01	1.227971296726900761e+02	5.245662807086792867e+01
1.806469365444235767e-02	2.619240798996412067e+01	3.675485677830787523e+01	1.227179281822299401e+02	5.177791839361587023e+01
1.844752337081655841e-02	2.605005285059090170e+01	3.670756066187959732e+01	1.226379411608872658e+02	5.110918418156737175e+01
1.883846607236187159e-02	2.590827469410426076e+01	3.665988760013115666e+01	1.225571407441854319e+02	5.044988145644712318e+01
1.923769369068539445e-02	2.576707122527187366e+01	3.661183531296819638e+01	1.224755171879945408e+02	4.979989605275952158e+01
1.964538180099485026e-02	2.562645926694653653e+01	3.656340539157080372e+01	1.223930666662107143e+02	4.915922082172574648e+01
2.006170969931423895e-02	2.548647467302968295e+01	3.651460374723104252e+01	1.223097918879472843e+02	4.852797668040633994e+01
2.048686048133601528e-02	2.534705668111084975e+01	3.646541405989118090e+01	1.222256619454464044e+02	4.790561999583225372e+01
2.092102112294418406e-02	2.520820409666790596e+01	3.641583301219868929e+01	1.221406657036133936e+02	4.729199718785404372e+01
2.136438256244391209e-02	2.506993374411229425e+01	3.636586257425495461e+01	1.220547992153634880e+02	4.668714647010488505e+01
2.181713978453380873e-02	2.493228035743411297e+01	3.631550873344632890e+01	1.219680646857977990e+02	4.609114335668447637e+01
2.227949190605761978e-02	2.479518341033719153e+01	3.626475613610347182e+01	1.218804310339374410e+02	4.550355467777646368e+01
2.275164226357336353e-02	2.465864274607870499e+01	3.621360296800825296e+01	1.217918881227305974e+02	4.492426548301647671e+01
2.323379850277806913e-02	2.452267519604629342e+01	3.616205050510403396e+01	1.217024308637396643e+02	4.435325166365436900e+01
2.372617266982774559e-02	2.438731433850972152e+01	3.611010283887623729e+01	1.216120591194822964e+02	4.379056368420972944e+01
2.422898130459259780e-02	2.425249997744492703e+01	3.605774377791074414e+01	1.215207398894720541e+02	4.323574887380679854e+01
2.474244553588843265e-02	2.411823292407721553e+01	3.600497158291506139e+01	1.214284625151089472e+02	4.268872876272383365e+01
2.526679117872631872e-02	2.398453002811391954e+01	3.595178869510598929e+01	1.213352226658564490e+02	4.214950067436966918e+01
