# Data associated with arXiv:2208.14002
# 
# Scale-free J-factor angular distribution, J_S(theta), of a nfw0-6rhos8e6 dark matter distribution (see Eq. 2.4 and the surrounding discussion)
# 
# Published: 8/25/22, Jack Runburg and Kenny Kiriu, contact: runburg@hawaii.edu
# 
# 
# -----------------------------------------------------------------
# 
# 	 tilde theta 		 | 	 tilde J s-wave 		 | 	 tilde J p-wave 		 | 	 tilde J d-wave 		 | 	 tilde J sommerfeld 
# 
# -----------------------------------------------------------------
1.000000000000000021e-03	5.213425338857725677e+01	2.092181151861644040e+01	3.478518892817441355e+01	4.724995627885505201e+02
1.021192151037671062e-03	5.195988113511179307e+01	2.091573538309195257e+01	3.478050304073417465e+01	4.681760398480654999e+02
1.042833409340945643e-03	5.178135557055499305e+01	2.090950269932764627e+01	3.477569652597988181e+01	4.637557201908932143e+02
1.064933292458827233e-03	5.159867615884874681e+01	2.090311228811656008e+01	3.477076850167001965e+01	4.592392433838982697e+02
1.087501519637659123e-03	5.141185598211465901e+01	2.089656337056948843e+01	3.476571840321601314e+01	4.546276436718973173e+02
1.110548016095517111e-03	5.122092422164408276e+01	2.088985565768157571e+01	3.476054605580531387e+01	4.499224159551861817e+02
1.134082917387199208e-03	5.102592924462695123e+01	2.088298946601409511e+01	3.475525176793878757e+01	4.451255966034011635e+02
1.158116573861711456e-03	5.082694253745080459e+01	2.087596587132852122e+01	3.474983645619819583e+01	4.402398645476833394e+02
1.182659555214217667e-03	5.062406387067030522e+01	2.086878691968798805e+01	3.474430181746478752e+01	4.352686711566981899e+02
1.207722655134462354e-03	5.041742834515599014e+01	2.086145592992935605e+01	3.473865057682919399e+01	4.302164129081056672e+02
1.233316896053688856e-03	5.020721648761421818e+01	2.085397795021009770e+01	3.473288686351940413e+01	4.250886714642257971e+02
1.259453533992170365e-03	4.999366966974214677e+01	2.084636049390886470e+01	3.472701681956508679e+01	4.198925679478002166e+02
1.286144063509461061e-03	4.977711574600166955e+01	2.083861483090048594e+01	3.472104967224817074e+01	4.146373298915290206e+02
1.313400222759557485e-03	4.955801693919158879e+01	2.083075852649714577e+01	3.471499985051713821e+01	4.093353078485714605e+02
1.341233998653187541e-03	4.933707559139192256e+01	2.082282131308410911e+01	3.470889189434038968e+01	4.040041305224671646e+02
1.369657632129505243e-03	4.911553900914283588e+01	2.081486267197350770e+01	3.470277518889165691e+01	3.986726885412398929e+02
1.398683623539492566e-03	4.889671313975616584e+01	2.080706155339396801e+01	3.469679926340608489e+01	3.934099687601902815e+02
1.428324738143458596e-03	4.867064915004142733e+01	2.079879772854356546e+01	3.469044263207799617e+01	3.880382998041635005e+02
1.458594011725036863e-03	4.844157629717364699e+01	2.079025359588886701e+01	3.468385482052782720e+01	3.826611144070176351e+02
1.489504756324154782e-03	4.820560491307867323e+01	2.078115915660141511e+01	3.467680695694503612e+01	3.772169735584046180e+02
1.521070566091505720e-03	4.797393567325198660e+01	2.077219493860992472e+01	3.466987113593213365e+01	3.719123817026707002e+02
1.553305323267072666e-03	4.774472099747122655e+01	2.076325422860663394e+01	3.466295805903776284e+01	3.667103808657741411e+02
1.586223204285366938e-03	4.751208507076029974e+01	2.075396400094764715e+01	3.465575288433869616e+01	3.615052136779069656e+02
1.619838686010041055e-03	4.728045835171912614e+01	2.074459802971422917e+01	3.464848613735728833e+01	3.563766370731540860e+02
1.654166552100628336e-03	4.704982688061804197e+01	2.073515547778735879e+01	3.464115707267406208e+01	3.513234998788690859e+02
1.689221899514206692e-03	4.682011904493726462e+01	2.072563407215375264e+01	3.463376385023367732e+01	3.463425695632962515e+02
1.725020145144853453e-03	4.659135359614980132e+01	2.071603374971723355e+01	3.462630630838631163e+01	3.414334278613602578e+02
1.761577032603788440e-03	4.636358216049407588e+01	2.070635531515562633e+01	3.461878494767341863e+01	3.365968959500385154e+02
1.798908639143220224e-03	4.613678699399447680e+01	2.069659780508396452e+01	3.461119891453741104e+01	3.318313146702834047e+02
1.837031382726912916e-03	4.591090042784846048e+01	2.068675895372304652e+01	3.460354635636846155e+01	3.271340221089273541e+02
1.875962029250603357e-03	4.568594109730696573e+01	2.067683870297005200e+01	3.459582710552845697e+01	3.225044672703299966e+02
1.915717699915417882e-03	4.546196077529207002e+01	2.066683790761752348e+01	3.458804169498016989e+01	3.179434528656017847e+02
1.956315878757565116e-03	4.523893812897411237e+01	2.065675536799010814e+01	3.458018914375941932e+01	3.134492603451549826e+02
1.997774420337589726e-03	4.501680929500818706e+01	2.064658871576007115e+01	3.457226757216650270e+01	3.090191705423538338e+02
2.040111557592579582e-03	4.479559279581517472e+01	2.063633789966271692e+01	3.456427680520602763e+01	3.046530880986348393e+02
2.083345909854779961e-03	4.457534048552192729e+01	2.062600383063497489e+01	3.455621740830234501e+01	3.003513523470802511e+02
2.127496491040134757e-03	4.435602763667102977e+01	2.061558527549166442e+01	3.454808829332687736e+01	2.961126783422661788e+02
2.172582718010372237e-03	4.413759405554421278e+01	2.060507995958561622e+01	3.453988757910912000e+01	2.919346031247570181e+02
2.218624419112281976e-03	4.392005815474539787e+01	2.059448783620100798e+01	3.453161508246598999e+01	2.878167121281690015e+02
2.265641842897974604e-03	4.370347180704884948e+01	2.058380988664920253e+01	3.452327140381213155e+01	2.837598481701821811e+02
2.313655667029933423e-03	4.348780707777138588e+01	2.057304472339897927e+01	3.451485532746972495e+01	2.797622800382067112e+02
2.362687007374795686e-03	4.327300730937339068e+01	2.056219008113375324e+01	3.450636495989024866e+01	2.758219727098867224e+02
2.412757427289825233e-03	4.305909081017998830e+01	2.055124592689039886e+01	3.449780011144678582e+01	2.719385649068249222e+02
2.463888947106213784e-03	4.284610941111321836e+01	2.054021327162983468e+01	3.448916141178903416e+01	2.681126738489466561e+02
2.516104053813336943e-03	4.263403215038715643e+01	2.052909043039121784e+01	3.448044749155324240e+01	2.643425927270200759e+02
2.569425710948245768e-03	4.242280578146464620e+01	2.051787507213101946e+01	3.447165643321751105e+01	2.606262879975541296e+02
2.623877368694733318e-03	4.221244850449478747e+01	2.050656716064242957e+01	3.446278803567500404e+01	2.569636405458100512e+02
2.679482974196439188e-03	4.200301205758834300e+01	2.049516780530588633e+01	3.445384296749583086e+01	2.533550590427518898e+02
2.736266982088478034e-03	4.179446262479730478e+01	2.048367530394328995e+01	3.444481973986035683e+01	2.497991985723157882e+02
2.794254365252289707e-03	4.158675024456973546e+01	2.047208739906518105e+01	3.443571643175422281e+01	2.462941888943933861e+02
2.853470625798387814e-03	4.137989301756032035e+01	2.046040407452348475e+01	3.442653283465148917e+01	2.428396743492795053e+02
2.913941806281861776e-03	4.117394252595504156e+01	2.044862649089924389e+01	3.441726964765498309e+01	2.394364209012449862e+02
2.975694501155571117e-03	4.096886227539940251e+01	2.043675279742914697e+01	3.440792523933625091e+01	2.360827478873079883e+02
3.038755868466027146e-03	4.076460546428749865e+01	2.042478074353340389e+01	3.439849767505067035e+01	2.327770889748722993e+02
3.103153641797168783e-03	4.056119009769928851e+01	2.041271032318385537e+01	3.438898673622705360e+01	2.295191824169282881e+02
3.168916142467233243e-03	4.035866754961712388e+01	2.040054268494948175e+01	3.437939314367615395e+01	2.263095705562818125e+02
3.236072291984112663e-03	4.015699881043358488e+01	2.038827560223488788e+01	3.436971507748815213e+01	2.231465509985487188e+02
3.304651624764658874e-03	3.995614012331629539e+01	2.037590681743778731e+01	3.435995058453390527e+01	2.200286288017296386e+02
3.374684301123556836e-03	3.975610939876482064e+01	2.036343632843191642e+01	3.435009943174367208e+01	2.169557152648985436e+02
3.446201120537424525e-03	3.955695774925752772e+01	2.035086544792529040e+01	3.434016238734287185e+01	2.139281984622964501e+02
3.519233535190044709e-03	3.935864381254857847e+01	2.033819196459483791e+01	3.433013750299862465e+01	2.109447797334953805e+02
3.593813663804625805e-03	3.916112676070923015e+01	2.032541365181469217e+01	3.432002281617919692e+01	2.080040269436000528e+02
3.669974305769219299e-03	3.896442441120626654e+01	2.031253052271266668e+01	3.430981808236574437e+01	2.051056476965580373e+02
3.747748955561452412e-03	3.876858757062730376e+01	2.029954395748533358e+01	3.429952410193848067e+01	2.022503217900645893e+02
3.827171817478984984e-03	3.857357267342304397e+01	2.028645157515443742e+01	3.428913876233364277e+01	1.994364667523656465e+02
3.908277820682117681e-03	3.837934170987448113e+01	2.027325115657207988e+01	3.427866008594199343e+01	1.966628808892776590e+02
3.991102634555192957e-03	3.818591241122928892e+01	2.025994262070460294e+01	3.426808779242882252e+01	1.939293320929724302e+02
4.075682684393532908e-03	3.799333521984723916e+01	2.024652720648296622e+01	3.425742267164431354e+01	1.912362353211775883e+02
4.162055167422817371e-03	3.780156452838861725e+01	2.023300229707536957e+01	3.424666242559968765e+01	1.885821318990684574e+02
4.250258069157961290e-03	3.761056503216825320e+01	2.021936569010259177e+01	3.423580506039249371e+01	1.859658365211442401e+02
4.340330180108637088e-03	3.742035437913391149e+01	2.020561742775045388e+01	3.422485030235239378e+01	1.833873113998684801e+02
4.432311112838861061e-03	3.723098260299845919e+01	2.019175903845259512e+01	3.421379901154465131e+01	1.808469041655736191e+02
4.526241319388085715e-03	3.704240219739494222e+01	2.017778773453642316e+01	3.420264870914866862e+01	1.783433652143005474e+02
4.622162109061505458e-03	3.685458045923105175e+01	2.016370135156046572e+01	3.419139739156221225e+01	1.758756407765134782e+02
4.720115666597336779e-03	3.666753495246319261e+01	2.014949993357825164e+01	3.418004476318547802e+01	1.734434826784386985e+02
4.820145070719144588e-03	3.648131526377869704e+01	2.013518510073901524e+01	3.416859171931763228e+01	1.710474815772558941e+02
4.922294313081310678e-03	3.629587212376491578e+01	2.012075387375972824e+01	3.415703559347236506e+01	1.686861817901329630e+02
5.026608317615998724e-03	3.611117532926603246e+01	2.010620387313148072e+01	3.414537431378521148e+01	1.663585826906148384e+02
5.133132960290130720e-03	3.592724236851731234e+01	2.009153497782059006e+01	3.413360752513572294e+01	1.640645012701063195e+02
5.241915089281041530e-03	3.574412232411277301e+01	2.007674885560326672e+01	3.412173614180043302e+01	1.618043514164906469e+02
5.353002545579732367e-03	3.556176431398493776e+01	2.006184231269366691e+01	3.410975729228737663e+01	1.595768531646621398e+02
5.466444184030696055e-03	3.538014052955099942e+01	2.004681322387164499e+01	3.409766893704068025e+01	1.573810753312989732e+02
5.582289894817666839e-03	3.519926838710932770e+01	2.003166168076151621e+01	3.408547074374006769e+01	1.552169847620426424e+02
5.700590625404708227e-03	3.501919642572686797e+01	2.001638944973272771e+01	3.407316365776295441e+01	1.530849128674303756e+02
5.821398402942216249e-03	3.483987228059529428e+01	2.000099311218143683e+01	3.406074459459664183e+01	1.509836772264813192e+02
5.944766357147824969e-03	3.466127044106646338e+01	1.998547058443055846e+01	3.404821150069819424e+01	1.489125008087256958e+02
6.070748743672167193e-03	3.448340825231637297e+01	1.996982199134145475e+01	3.403556402745258680e+01	1.468711876843017023e+02
6.199400967959818945e-03	3.430633367254525012e+01	1.995404905277964147e+01	3.402280311134355628e+01	1.448601937164228275e+02
6.330779609615908021e-03	3.412999298159440542e+01	1.993814777513275516e+01	3.400992535698494379e+01	1.428781275387303538e+02
6.464942447289089879e-03	3.395436287287005683e+01	1.992211606205474794e+01	3.399692868015514335e+01	1.409242739871929473e+02
6.601948484081890736e-03	3.377946062735665578e+01	1.990595405831049192e+01	3.398381270457264947e+01	1.389985662389642584e+02
6.741857973499477616e-03	3.360533357252379716e+01	1.988966365630487232e+01	3.397057840331630985e+01	1.371013321842152095e+02
6.884732445948405985e-03	3.343192676792882878e+01	1.987324097961083424e+01	3.395722223957777430e+01	1.352314360563916011e+02
7.030634735796891313e-03	3.325921901538371372e+01	1.985668400573669246e+01	3.394374211930087171e+01	1.333881720892789247e+02
7.179629009008595825e-03	3.308722753248285642e+01	1.983999292032273587e+01	3.393013764234093088e+01	1.315715059178796196e+02
7.331780791361950343e-03	3.291599898435831051e+01	1.982316975059006126e+01	3.391640981988066983e+01	1.297817313073878438e+02
7.487156997267587974e-03	3.274547732553047297e+01	1.980621037544480245e+01	3.390255487260800749e+01	1.280177647813153499e+02
7.645825959196438613e-03	3.257564337852222280e+01	1.978911260271445016e+01	3.388857062427357647e+01	1.262789894695618358e+02
7.807857457731475631e-03	3.240651430467648453e+01	1.977187630152677400e+01	3.387445654805638640e+01	1.245651785420287752e+02
7.973322752256328111e-03	3.223813606046303448e+01	1.975450346817751779e+01	3.386021363228672243e+01	1.228767320347679828e+02
8.142294612294233985e-03	3.207045162198833310e+01	1.973698973745182172e+01	3.384583784005255325e+01	1.212124884674710614e+02
8.314847349511189298e-03	3.190344374211739265e+01	1.971933317038185862e+01	3.383132702813431791e+01	1.195719291251200929e+02
8.491056850397209546e-03	3.173712952644270047e+01	1.970153402431633793e+01	3.381668074144324976e+01	1.179550143443389771e+02
8.671000609640279119e-03	3.157155419475554581e+01	1.968359446660853962e+01	3.380190000519755955e+01	1.163620084560673718e+02
8.854757764207504128e-03	3.140665985097835744e+01	1.966550988530701005e+01	3.378698052286272002e+01	1.147918939038595738e+02
9.042409128148579806e-03	3.124243109831870768e+01	1.964727838700458307e+01	3.377192012874456140e+01	1.132441455527315526e+02
9.234037228136720080e-03	3.107888499212290867e+01	1.962890022519744804e+01	3.375671832665872074e+01	1.117187298716427932e+02
9.429726339762870002e-03	3.091606596786765948e+01	1.961037720593142453e+01	3.374137601155739929e+01	1.102158124548738272e+02
9.629562524599030379e-03	3.075391538357857613e+01	1.959170421479501201e+01	3.372588852423333350e+01	1.087343928950522667e+02
9.833633668047030499e-03	3.059241960226801993e+01	1.957287943030435429e+01	3.371025367140421736e+01	1.072740559011726020e+02
1.004202951798940403e-02	3.043159563274496904e+01	1.955390315402734558e+01	3.369447091363429081e+01	1.058346589771371953e+02
1.025484172425938229e-02	3.027148709840716734e+01	1.953477768017542360e+01	3.367854125612366545e+01	1.044165853747574744e+02
1.047216387894729824e-02	3.011203471193795167e+01	1.951549788689366594e+01	3.366245984424980264e+01	1.030187828273618607e+02
1.069409155756119272e-02	2.995322651931795477e+01	1.949606203933464599e+01	3.364622446806192357e+01	1.016408696035395423e+02
1.092072236105970547e-02	2.979507948682408625e+01	1.947647049355765247e+01	3.362983454937063499e+01	1.002828247078237496e+02
1.115215595877575537e-02	2.963763638906143782e+01	1.945672560116593175e+01	3.361329108324208192e+01	9.894485974563163211e+01
1.138849413224978825e-02	2.948083740256133822e+01	1.943682147955495054e+01	3.359658873679465785e+01	9.762600334650333878e+01
1.162984081999205582e-02	2.932467217606853893e+01	1.941675610980079725e+01	3.357972514895961069e+01	9.632582002474856608e+01
1.187630216319339981e-02	2.916915764067303840e+01	1.939652985240385874e+01	3.356269967210491956e+01	9.504429631232716247e+01
1.212798655240480798e-02	2.901433567914279266e+01	1.937614516719585112e+01	3.354551328636667762e+01	9.378165504066717517e+01
1.238500467520621366e-02	2.886014604443789011e+01	1.935559640207036480e+01	3.352816053128506013e+01	9.253702487545051270e+01
1.264746956488544717e-02	2.870657990786627067e+01	1.933488189274450875e+01	3.351063910557225256e+01	9.131010380974312568e+01
1.291549665014883955e-02	2.855365417044552245e+01	1.931400211595556726e+01	3.349294834624811301e+01	9.010078086825976129e+01
1.318920380588532899e-02	2.840140979324059245e+01	1.929295965018583203e+01	3.347508924375988926e+01	8.890938028663990167e+01
1.346871140500627631e-02	2.824978620111599170e+01	1.927174833662029840e+01	3.345705592754455182e+01	8.773494899494548349e+01
1.375414237138396570e-02	2.809877601624705434e+01	1.925036600709193380e+01	3.343884581601671613e+01	8.657714010817710459e+01
1.404562223391196511e-02	2.794839611100254828e+01	1.922881301077157090e+01	3.342045812092847257e+01	8.543592735295223406e+01
1.434327918171109106e-02	2.779868649461273122e+01	1.920709203262745746e+01	3.340189380674246422e+01	8.431150692499984700e+01
1.464724412050539583e-02	2.764958636221765076e+01	1.918519676557284370e+01	3.338314669746597474e+01	8.320305622668108469e+01
1.495765073019278586e-02	2.750108971311451711e+01	1.916312565273452506e+01	3.336421437689097758e+01	8.211029723937008384e+01
1.527463552363575450e-02	2.735321339767258664e+01	1.914087932311821305e+01	3.334509609272453901e+01	8.103323277067755726e+01
1.559833790669801906e-02	2.720599643837963555e+01	1.911846056764478519e+01	3.332579279259013560e+01	7.997206117869090747e+01
1.592890023955338338e-02	2.705937789839072849e+01	1.909586269677522097e+01	3.330629791569300124e+01	7.892597036276495714e+01
1.626646789929399317e-02	2.691335308144870808e+01	1.907308363809502438e+01	3.328660875075260606e+01	7.789469454965777118e+01
1.661118934386526108e-02	2.676793882473851127e+01	1.905012369005606487e+01	3.326672431048668699e+01	7.687812238591722291e+01
1.696321617735579643e-02	2.662317312401004443e+01	1.902698565781686213e+01	3.324664545978760088e+01	7.587652461679336113e+01
1.732270321667098503e-02	2.647899501141963796e+01	1.900366270973957583e+01	3.322636534323621049e+01	7.488908145178697850e+01
1.768980855961942850e-02	2.633540102553212492e+01	1.898015349898702908e+01	3.320588146482056402e+01	7.391560991079484211e+01
1.806469365444235767e-02	2.619240798996412067e+01	1.895645880233635339e+01	3.318519294003865383e+01	7.295609650432911053e+01
1.844752337081655841e-02	2.605005285059089459e+01	1.893258145941249282e+01	3.316430053208829065e+01	7.201070706154320078e+01
1.883846607236187159e-02	2.590827469410426076e+01	1.890851406230228804e+01	3.314319685898960444e+01	7.107869078299627574e+01
1.923769369068539445e-02	2.576707122527187366e+01	1.888425468555800535e+01	3.312187905175094471e+01	7.015980620988356975e+01
1.964538180099485026e-02	2.562645926694653653e+01	1.885980389870304208e+01	3.310034603611321558e+01	6.925405456020121164e+01
2.006170969931423895e-02	2.548647467302968295e+01	1.883516458204908872e+01	3.307859849769195648e+01	6.836156090067102298e+01
2.048686048133601528e-02	2.534705668111084975e+01	1.881032922945008323e+01	3.305662874017667718e+01	6.748164816994639637e+01
2.092102112294418406e-02	2.520820409666790596e+01	1.878529671244106680e+01	3.303443414446847726e+01	6.661417832560930208e+01
2.136438256244391209e-02	2.506993374411229425e+01	1.876006803164700543e+01	3.301201373562746966e+01	6.575909858075691261e+01
2.181713978453380873e-02	2.493228035743401350e+01	1.873464609028804517e+01	3.298936809710480844e+01	6.491660997680178014e+01
2.227949190605761978e-02	2.479518341033719508e+01	1.870902249335875212e+01	3.296648883117381956e+01	6.408596879226541887e+01
2.275164226357336353e-02	2.465864274607870499e+01	1.868319552071297096e+01	3.294337290128905948e+01	6.326698521885209914e+01
2.323379850277806913e-02	2.452267519604626855e+01	1.865716617475331063e+01	3.292001919854728698e+01	6.245967284970089395e+01
2.372617266982774559e-02	2.438731433850972152e+01	1.863093752102280831e+01	3.289642826817761545e+01	6.166415045877350565e+01
2.422898130459259780e-02	2.425249997744493058e+01	1.860450152562115989e+01	3.287259161584535860e+01	6.087981180358268318e+01
2.474244553588843265e-02	2.411823292407721553e+01	1.857785734150540691e+01	3.284850653934172726e+01	6.010651595380888068e+01
2.526679117872631872e-02	2.398453002811391954e+01	1.855100595126726049e+01	3.282417176047511731e+01	5.934429585952920405e+01
