# Data associated with arXiv:2208.14002
# 
# Scale-free J-factor angular distribution, J_S(theta), of a nfw1-2rhos4e6 dark matter distribution (see Eq. 2.4 and the surrounding discussion)
# 
# Published: 8/25/22, Jack Runburg and Kenny Kiriu, contact: runburg@hawaii.edu
# 
# 
# -----------------------------------------------------------------
# 
# 	 tilde theta 		 | 	 tilde J s-wave 		 | 	 tilde J p-wave 		 | 	 tilde J d-wave 		 | 	 tilde J sommerfeld 
# 
# -----------------------------------------------------------------
1.000000000000000021e-03	1.815024122858022898e+07	2.898178075398732908e+05	1.195090949592981342e+05	3.760468513589680791e+08
1.021192151037671062e-03	1.784750736651672050e+07	2.877370654841271462e+05	1.190749701269322832e+05	3.682025024116500020e+08
1.042833409340945643e-03	1.753850097658303380e+07	2.856084658401887864e+05	1.186304930942274805e+05	3.602029912070140243e+08
1.064933292458827233e-03	1.722332227541507408e+07	2.834321801784212003e+05	1.181756613426520053e+05	3.520517423058409095e+08
1.087501519637659123e-03	1.690210448879570141e+07	2.812085576164819649e+05	1.177105061765653954e+05	3.437531201101491451e+08
1.110548016095517111e-03	1.657501905147519708e+07	2.789381554465347435e+05	1.172350989005898882e+05	3.353125738044667840e+08
1.134082917387199208e-03	1.624228190965612419e+07	2.766217768615048262e+05	1.167495585089953383e+05	3.267368124002789855e+08
1.158116573861711456e-03	1.590416130214074440e+07	2.742605184686515131e+05	1.162540614895371546e+05	3.180340198281096220e+08
1.182659555214217667e-03	1.556098759347160719e+07	2.718558318321831175e+05	1.157488547056204698e+05	3.092141250554929376e+08
1.207722655134462354e-03	1.521316607824627869e+07	2.694096061025162344e+05	1.152342729833113845e+05	3.002891509048846960e+08
1.233316896053688856e-03	1.486119432425431907e+07	2.669242842550221249e+05	1.147107643302049546e+05	2.912736812965466380e+08
1.259453533992170365e-03	1.450568694418914802e+07	2.644030369980614050e+05	1.141789284873688885e+05	2.821855188223674297e+08
1.286144063509461061e-03	1.414741368506523967e+07	2.618500454909028776e+05	1.136395810910728324e+05	2.730466763005006313e+08
1.313400222759557485e-03	1.378736456325949170e+07	2.592710171157715959e+05	1.130938736263342580e+05	2.638850301925404966e+08
1.341233998653187541e-03	1.342688075912676938e+07	2.566742985243480070e+05	1.125435585711187741e+05	2.547375411425134838e+08
1.369657632129505243e-03	1.306799845452866703e+07	2.540740184369025810e+05	1.119917543110056577e+05	2.456584154559929371e+08
1.398683623539492566e-03	1.271502448158334754e+07	2.515054424837933329e+05	1.114467454370471387e+05	2.367551771732966006e+08
1.428324738143458596e-03	1.235941677138481662e+07	2.488710000521926850e+05	1.108835258614906634e+05	2.278524460919783711e+08
1.458594011725036863e-03	1.200889856965318322e+07	2.462202289261088881e+05	1.103126520173038589e+05	2.191613066535400152e+08
1.489504756324154782e-03	1.166101996241084300e+07	2.435172746869587863e+05	1.097243240060771932e+05	2.106416326281627119e+08
1.521070566091505720e-03	1.132631219079160690e+07	2.408739653258007893e+05	1.091466790543232346e+05	2.025201906058301926e+08
1.553305323267072666e-03	1.100247121736524440e+07	2.382711642823057191e+05	1.085750822500895592e+05	1.947381861778623164e+08
1.586223204285366938e-03	1.068404456468873285e+07	2.356511863209425646e+05	1.079947606819981738e+05	1.871730904530004263e+08
1.619838686010041055e-03	1.037492552345404960e+07	2.330576031016224588e+05	1.074168425456213154e+05	1.799047391626759768e+08
1.654166552100628336e-03	1.007481672248121537e+07	2.304899477930538123e+05	1.068412902065851085e+05	1.729203037199992537e+08
1.689221899514206692e-03	9.783284903555219993e+06	2.279471271047285409e+05	1.062679268135930761e+05	1.662040378956158757e+08
1.725020145144853453e-03	9.500141349980976433e+06	2.254292549483282492e+05	1.056967993942545727e+05	1.597470901132595837e+08
1.761577032603788440e-03	9.225277848037004471e+06	2.229368965376609121e+05	1.051280372174226795e+05	1.535433026121938229e+08
1.798908639143220224e-03	8.958420456782724708e+06	2.204696997034730448e+05	1.045615977653029549e+05	1.475820757693554759e+08
1.837031382726912916e-03	8.699190511982226744e+06	2.180266307497301896e+05	1.039973135892872233e+05	1.418497991829391122e+08
1.875962029250603357e-03	8.447420588269960135e+06	2.156076567430428404e+05	1.034352272517434612e+05	1.363392205236369967e+08
1.915717699915417882e-03	8.203016571432381868e+06	2.132131308427032200e+05	1.028754620830243657e+05	1.310445275569871664e+08
1.956315878757565116e-03	7.965726470232646912e+06	2.108426337231234065e+05	1.023179652730604430e+05	1.259567714874489754e+08
1.997774420337589726e-03	7.735219403739131056e+06	2.084952133081162174e+05	1.017625790578690794e+05	1.210641702297625989e+08
2.040111557592579582e-03	7.511346846736002713e+06	2.061709968221735326e+05	1.012093506438746408e+05	1.163606823203550726e+08
2.083345909854779961e-03	7.294026896291420795e+06	2.038705380116269807e+05	1.006584104609572823e+05	1.118418358210541308e+08
2.127496491040134757e-03	7.083028147762482055e+06	2.015933940080339380e+05	1.001096980356740678e+05	1.074994862133652866e+08
2.172582718010372237e-03	6.878061507430097088e+06	1.993385915959181439e+05	9.956306152928790834e+04	1.033239927779491693e+08
2.218624419112281976e-03	6.678995236839259043e+06	1.971060436355531565e+05	9.901854008839621383e+04	9.930973255727511644e+07
2.265641842897974604e-03	6.485757979858924635e+06	1.948962270767227747e+05	9.847626187183098227e+04	9.545330898959401250e+07
2.313655667029933423e-03	6.298137604678452015e+06	1.927086697729275911e+05	9.793615828582830727e+04	9.174701310459651053e+07
2.362687007374795686e-03	6.115881545913986862e+06	1.905425715695465042e+05	9.739809005897732277e+04	8.818314218402782083e+07
2.412757427289825233e-03	5.938872948738085106e+06	1.883980594962601317e+05	9.686210421530877647e+04	8.475705340750460327e+07
2.463888947106213784e-03	5.767049644151677378e+06	1.862756505097608606e+05	9.632833105629784404e+04	8.146573808846229315e+07
2.516104053813336943e-03	5.600217407041219063e+06	1.841748000625370478e+05	9.579669259892856644e+04	7.830266742557923496e+07
2.569425710948245768e-03	5.438155663524581119e+06	1.820945712311573152e+05	9.526704969882653677e+04	7.526108542594273388e+07
2.623877368694733318e-03	5.280760656924446113e+06	1.800349891780838079e+05	9.473944523757167917e+04	7.233726964504405856e+07
2.679482974196439188e-03	5.127978287189171650e+06	1.779965497798653669e+05	9.421400866336764011e+04	6.952813916622890532e+07
2.736266982088478034e-03	4.979630938732462004e+06	1.759787445949014509e+05	9.369065719342936063e+04	6.682846973969414830e+07
2.794254365252289707e-03	4.835525966027759016e+06	1.739808968348171911e+05	9.316926842694441439e+04	6.423251386905315518e+07
2.853470625798387814e-03	4.695571347938532010e+06	1.720031140834926919e+05	9.264988839070228278e+04	6.173712728325007856e+07
2.913941806281861776e-03	4.559719867437864654e+06	1.700458687765608774e+05	9.213264623835831298e+04	5.933977229919424653e+07
2.975694501155571117e-03	4.427809347683562897e+06	1.681084810862508602e+05	9.161744537787606532e+04	5.703579298930979520e+07
3.038755868466027146e-03	4.299671551738477312e+06	1.661901770611904503e+05	9.110416364586522104e+04	5.482040735401361436e+07
3.103153641797168783e-03	4.175224877586597577e+06	1.642910657707624778e+05	9.059284728922924842e+04	5.269062134361893684e+07
3.168916142467233243e-03	4.054428070000608452e+06	1.624116195045988134e+05	9.008362556133908220e+04	5.064459933414781094e+07
3.236072291984112663e-03	3.937133234334710520e+06	1.605513095218569506e+05	8.957640341461832577e+04	4.867815310712981969e+07
3.304651624764658874e-03	3.823193464974770322e+06	1.587095508976464334e+05	8.907107324047696602e+04	4.678739759473274648e+07
3.374684301123556836e-03	3.712536411861503031e+06	1.568864400729692425e+05	8.856768115013696661e+04	4.496976985341076553e+07
3.446201120537424525e-03	3.605125972139110789e+06	1.550823333922589663e+05	8.806635005710711994e+04	4.322371099049360305e+07
3.519233535190044709e-03	3.500827450601634104e+06	1.532965130750208045e+05	8.756696919120707025e+04	4.154552597640575469e+07
3.593813663804625805e-03	3.399512576040107291e+06	1.515284350277404301e+05	8.706943793394898239e+04	3.993183609313491732e+07
3.669974305769219299e-03	3.301117192887704354e+06	1.497781941301175975e+05	8.657380164784543740e+04	3.838058549153780192e+07
3.747748955561452412e-03	3.205609712681272067e+06	1.480462468914240599e+05	8.608018848643709498e+04	3.689035006111967564e+07
3.827171817478984984e-03	3.112867554325686768e+06	1.463320417661105166e+05	8.558849218487623148e+04	3.545808532331053913e+07
3.908277820682117681e-03	3.022778742023659870e+06	1.446350796014053922e+05	8.509861959168924659e+04	3.408089995463430136e+07
3.991102634555192957e-03	2.935286401672242209e+06	1.429553722496166592e+05	8.461061112843657611e+04	3.275706909845388681e+07
4.075682684393532908e-03	2.850362834883407690e+06	1.412932015661855985e+05	8.412458450209841249e+04	3.148529383099675179e+07
4.162055167422817371e-03	2.767896628953088075e+06	1.396479728184916021e+05	8.364042571320365823e+04	3.026295496501543745e+07
4.250258069157961290e-03	2.687790035110953264e+06	1.380192313477662392e+05	8.315804842290142551e+04	2.908758870616842434e+07
4.340330180108637088e-03	2.609992635538387578e+06	1.364070744504268805e+05	8.267749869914572628e+04	2.795771247199866548e+07
4.432311112838861061e-03	2.534480120450335555e+06	1.348119397578366625e+05	8.219890383888967335e+04	2.687233625332364067e+07
4.526241319388085715e-03	2.461151320124413352e+06	1.332332588764795801e+05	8.172214771129321889e+04	2.582913998669642210e+07
4.622162109061505458e-03	2.389920916429040488e+06	1.316705341211087652e+05	8.124714480099911452e+04	2.482607983819904923e+07
4.720115666597336779e-03	2.320744218153898604e+06	1.301237141039682610e+05	8.077393004129105248e+04	2.386181245635506511e+07
4.820145070719144588e-03	2.253599862794424873e+06	1.285931784755136032e+05	8.030262670793781581e+04	2.293556944422229752e+07
4.922294313081310678e-03	2.188396067457018886e+06	1.270783517031334341e+05	7.983311331859510392e+04	2.204523177064298838e+07
5.026608317615998724e-03	2.125058371397992130e+06	1.255788486298500356e+05	7.936531650250087841e+04	2.118913922389774770e+07
5.133132960290130720e-03	2.063547166564733488e+06	1.240947703685950692e+05	7.889928232719883090e+04	2.036619241737047210e+07
5.241915089281041530e-03	2.003843644659647951e+06	1.226265277393111319e+05	7.843513671707408503e+04	1.957571244098330289e+07
5.353002545579732367e-03	1.945864623450332321e+06	1.211734754482493881e+05	7.797274958062231599e+04	1.881589256091280282e+07
5.466444184030696055e-03	1.889545120596654713e+06	1.197351202299672732e+05	7.751204161943150393e+04	1.808527042700032517e+07
5.582289894817666839e-03	1.834850035302037373e+06	1.183115196987328527e+05	7.705305516151856864e+04	1.738297808705534413e+07
5.700590625404708227e-03	1.781762788496414199e+06	1.169030654089994496e+05	7.659591373798306449e+04	1.670832862774398364e+07
5.821398402942216249e-03	1.730208052496006014e+06	1.155091722768500767e+05	7.614048823174562131e+04	1.605984616408901103e+07
5.944766357147824969e-03	1.680129123542348156e+06	1.141295288835970277e+05	7.568671757045526465e+04	1.543629503398285620e+07
6.070748743672167193e-03	1.631494899170096032e+06	1.127642311495351023e+05	7.523464788149255037e+04	1.483693279024657607e+07
6.199400967959818945e-03	1.584290740237906342e+06	1.114136077718930319e+05	7.478439811100045335e+04	1.426119516140251793e+07
6.330779609615908021e-03	1.538448491427115630e+06	1.100769179217580240e+05	7.433582052134262631e+04	1.370775036982686631e+07
6.464942447289089879e-03	1.493918676324465312e+06	1.087538558624743746e+05	7.388885723809215415e+04	1.317560579423528537e+07
6.601948484081890736e-03	1.450673739843517775e+06	1.074445219118443492e+05	7.344355512645520503e+04	1.266406081123574637e+07
6.741857973499477616e-03	1.408700729070316069e+06	1.061492670660971344e+05	7.300003487647286966e+04	1.217270380951186828e+07
6.884732445948405985e-03	1.367938033918926958e+06	1.048675196727750736e+05	7.255816161237761844e+04	1.170035705805688351e+07
7.030634735796891313e-03	1.328342485116799828e+06	1.035990290035676735e+05	7.211788587166494108e+04	1.124620480002393760e+07
7.179629009008595825e-03	1.289889672524695052e+06	1.023438222436808865e+05	7.167924662178904691e+04	1.080965082836369425e+07
7.331780791361950343e-03	1.252568118636616273e+06	1.011020947815465333e+05	7.124234752068376110e+04	1.039030953084795736e+07
7.487156997267587974e-03	1.216322170234397752e+06	9.987327092756837374e+04	7.080704956917602976e+04	9.987188670044481754e+06
7.645825959196438613e-03	1.181114164768982911e+06	9.865712496500997804e+04	7.037330824799199763e+04	9.599575523675184697e+06
7.807857457731475631e-03	1.146922480541148921e+06	9.745373991561178991e+04	6.994116943623116822e+04	9.227000689130840823e+06
7.973322752256328111e-03	1.113736929751269519e+06	9.626344462883762026e+04	6.951075150928027870e+04	8.869107633576808497e+06
8.142294612294233985e-03	1.081507278129589511e+06	9.508568417222234712e+04	6.908191493189669563e+04	8.525072269828760996e+06
8.314847349511189298e-03	1.050200669244508492e+06	9.392015686333509802e+04	6.865460852485499345e+04	8.194272944220166653e+06
8.491056850397209546e-03	1.019797954091296182e+06	9.276683975775908038e+04	6.822886521130251640e+04	7.876297231517882086e+06
8.671000609640279119e-03	9.902900725246068323e+05	9.162604678291277378e+04	6.780480108046435635e+04	7.570848599378891289e+06
8.854757764207504128e-03	9.616317157323739957e+05	9.049723058380151633e+04	6.738227417179914482e+04	7.277217555398369208e+06
9.042409128148579806e-03	9.337942215220028302e+05	8.938020160179931554e+04	6.696124917163506325e+04	6.994892754774841480e+06
9.234037228136720080e-03	9.067606347903413698e+05	8.827504008163092658e+04	6.654177293758641463e+04	6.723507769477085210e+06
9.429726339762870002e-03	8.805228767963221762e+05	8.718204469445250288e+04	6.612396003901887161e+04	6.462836507004234008e+06
9.629562524599030379e-03	8.550401176220952766e+05	8.610055841464587138e+04	6.570765010947057453e+04	6.212235393572439440e+06
9.833633668047030499e-03	8.302873522557264660e+05	8.503033597869017103e+04	6.529280140156317793e+04	5.971276489859928377e+06
1.004202951798940403e-02	8.062495683334202040e+05	8.397146534382387472e+04	6.487946165710272180e+04	5.739647354714786634e+06
1.025484172425938229e-02	7.829195555255574873e+05	8.292424390802159905e+04	6.446774554063277901e+04	5.517169496644855477e+06
1.047216387894729824e-02	7.602605386299336096e+05	8.188814124747156166e+04	6.405750787225149543e+04	5.303284125485410914e+06
1.069409155756119272e-02	7.382507061702221399e+05	8.086299837491856306e+04	6.364872178534640261e+04	5.097631869683170691e+06
1.092072236105970547e-02	7.168767691214245278e+05	7.984885912514445954e+04	6.324142820405463135e+04	4.899955598865337670e+06
1.115215595877575537e-02	6.961322760075618280e+05	7.884587956951583328e+04	6.283571979943475162e+04	4.710075837890230119e+06
1.138849413224978825e-02	6.759841305174207082e+05	7.785351388470944948e+04	6.243144621272094810e+04	4.527522434632723220e+06
1.162984081999205582e-02	6.564133056801258354e+05	7.687163157136681548e+04	6.202858549511864840e+04	4.351987823607938364e+06
1.187630216319339981e-02	6.374080395672466839e+05	7.590031324142492667e+04	6.162718512146935245e+04	4.183270898884272669e+06
1.212798655240480798e-02	6.189625501229307847e+05	7.493983659437678580e+04	6.122735706480180670e+04	4.021209242675941437e+06
1.238500467520621366e-02	6.010470702764098532e+05	7.398966350628186774e+04	6.082894936629641597e+04	3.865406835078512784e+06
1.264746956488544717e-02	5.836450030844899593e+05	7.304957920230973104e+04	6.043192784761851362e+04	3.715594108669640031e+06
1.291549665014883955e-02	5.667459411122406600e+05	7.211960433902397926e+04	6.003633011960527801e+04	3.571590750709914137e+06
1.318920380588532899e-02	5.503446865296427859e+05	7.119999140399797761e+04	5.964226420032452006e+04	3.433266486413774081e+06
1.346871140500627631e-02	5.344144909560213564e+05	7.029023768091460806e+04	5.924958163684827014e+04	3.300274272765771952e+06
1.375414237138396570e-02	5.189408744159643538e+05	6.939024093924379849e+04	5.885826788062946434e+04	3.172406214724577498e+06
1.404562223391196511e-02	5.039146296193150920e+05	6.850008029396213533e+04	5.846837120793795475e+04	3.049497191220799461e+06
1.434327918171109106e-02	4.893310764463382075e+05	6.761994125847610121e+04	5.807998814913222304e+04	2.931444492571891285e+06
1.464724412050539583e-02	4.751661929346487159e+05	6.674922339555357757e+04	5.769294849690635601e+04	2.817931715543035883e+06
1.495765073019278586e-02	4.614073463791325339e+05	6.588783634773441008e+04	5.730724087744659482e+04	2.708787235884280875e+06
1.527463552363575450e-02	4.480463930374538177e+05	6.503585646929771610e+04	5.692291341081057908e+04	2.603874731724950019e+06
1.559833790669801906e-02	4.350791097765727318e+05	6.419351719286653679e+04	5.654007197281604022e+04	2.503103726522629149e+06
1.592890023955338338e-02	4.224839384811829077e+05	6.336034057580129593e+04	5.615856771371683135e+04	2.406216421739834826e+06
1.626646789929399317e-02	4.102498569047689089e+05	6.253621110315369879e+04	5.577838529242774530e+04	2.313058559089657385e+06
1.661118934386526108e-02	3.983696636091605178e+05	6.172109815278046881e+04	5.539955028992924053e+04	2.223515500747215468e+06
1.696321617735579643e-02	3.868395409549982287e+05	6.091520073782763939e+04	5.502216114734736766e+04	2.137498627611198463e+06
1.732270321667098503e-02	3.756401539888063562e+05	6.011805738568153902e+04	5.464606940206779109e+04	2.054793530267879367e+06
1.768980855961942850e-02	3.647618852924907696e+05	5.932960504778474569e+04	5.427127350566633686e+04	1.975270371412782697e+06
1.806469365444235767e-02	3.541983685511777876e+05	5.854991607653337996e+04	5.389782238287832297e+04	1.898836147818231490e+06
1.844752337081655841e-02	3.439461439003724954e+05	5.777916644408628053e+04	5.352580934452156362e+04	1.825415729932980845e+06
1.883846607236187159e-02	3.339878842199097271e+05	5.701680565067193675e+04	5.315506125325928588e+04	1.754820958673672983e+06
1.923769369068539445e-02	3.243151964464489720e+05	5.626275423539713665e+04	5.278557270245650579e+04	1.686940952568044420e+06
1.964538180099485026e-02	3.149224528227675473e+05	5.551708242711468483e+04	5.241739270896984090e+04	1.621691690093683777e+06
2.006170969931423895e-02	3.058065132224079571e+05	5.477999448657327594e+04	5.205062304593722365e+04	1.559016605969663709e+06
2.048686048133601528e-02	2.969518594427247881e+05	5.405104931758601742e+04	5.168511521526253637e+04	1.498752655240700347e+06
2.092102112294418406e-02	2.883511655710393097e+05	5.333016195409667853e+04	5.132086286018481042e+04	1.440809413952876348e+06
2.136438256244391209e-02	2.799994596707646269e+05	5.261731232368613564e+04	5.095789134204729635e+04	1.385109631420766469e+06
2.181713978453380873e-02	2.718938846679739072e+05	5.191267572079452657e+04	5.059629524932162167e+04	1.331609043373725610e+06
2.227949190605761978e-02	2.640205525403011707e+05	5.121582141475652315e+04	5.023592573021663702e+04	1.280161912163149100e+06
2.275164226357336353e-02	2.563730678954291507e+05	5.052670827572666894e+04	4.987678680571095174e+04	1.230694028704826254e+06
2.323379850277806913e-02	2.489470395951780374e+05	4.984541053849365562e+04	4.951893143702986708e+04	1.183146285328327445e+06
2.372617266982774559e-02	2.417398618885432370e+05	4.917204991095566947e+04	4.916243889269049396e+04	1.137473271413424052e+06
2.422898130459259780e-02	2.347391160659122397e+05	4.850612804388191580e+04	4.880713694591609237e+04	1.093553328291086713e+06
2.474244553588843265e-02	2.279392173490625864e+05	4.784761914147786592e+04	4.845303663125002640e+04	1.051320225783182774e+06
2.526679117872631872e-02	2.213362884390863765e+05	4.719659388633303024e+04	4.810018882415789994e+04	1.010728973038393888e+06
