# Data associated with arXiv:2208.14002
# 
# Scale-free J-factor angular distribution, J_S(theta), of a nfw1-3rhos4e6 dark matter distribution (see Eq. 2.4 and the surrounding discussion)
# 
# Published: 8/25/22, Jack Runburg and Kenny Kiriu, contact: runburg@hawaii.edu
# 
# 
# -----------------------------------------------------------------
# 
# 	 tilde theta 		 | 	 tilde J s-wave 		 | 	 tilde J p-wave 		 | 	 tilde J d-wave 		 | 	 tilde J sommerfeld 
# 
# -----------------------------------------------------------------
1.000000000000000021e-03	1.745715666560476422e+08	2.183115798729230650e+06	5.623009372121124761e+05	3.522675584326841354e+09
1.021192151037671062e-03	1.713458342657453120e+08	2.162294830167884938e+06	5.595684371908543399e+05	3.444538056939795971e+09
1.042833409340945643e-03	1.680545833750907779e+08	2.141007879389610607e+06	5.567716589092250215e+05	3.364878445789478302e+09
1.064933292458827233e-03	1.646990293475686014e+08	2.119258046572243329e+06	5.539106778386379592e+05	3.283733539002872944e+09
1.087501519637659123e-03	1.612807542401552200e+08	2.097050334926387062e+06	5.509857898304664996e+05	3.201149767938686371e+09
1.110548016095517111e-03	1.578017639963674545e+08	2.074391968782637035e+06	5.479975504305779468e+05	3.117184686938064098e+09
1.134082917387199208e-03	1.542645576503384709e+08	2.051292783200655365e+06	5.449468236062320648e+05	3.031908758996731281e+09
1.158116573861711456e-03	1.506722125790790021e+08	2.027765711326087127e+06	5.418348435618188232e+05	2.945407547585863113e+09
1.182659555214217667e-03	1.470284919253528714e+08	2.003827410479284823e+06	5.386632954945275560e+05	2.857784465046848297e+09
1.207722655134462354e-03	1.433379839452462792e+08	1.979499094477415318e+06	5.354344251112682978e+05	2.769164314312585831e+09
1.233316896053688856e-03	1.396062897980070710e+08	1.954807690718609607e+06	5.321511944884078111e+05	2.679698019243068218e+09
1.259453533992170365e-03	1.358402899865205884e+08	1.929787547366106184e+06	5.288175183466530871e+05	2.589569254939779758e+09
1.286144063509461061e-03	1.320485504869570285e+08	1.904483164687740849e+06	5.254386537636333378e+05	2.499004389817821026e+09
1.313400222759557485e-03	1.282420095852854848e+08	1.878954091084186686e+06	5.220219220786904334e+05	2.408288938516684532e+09
1.341233998653187541e-03	1.244353395730210990e+08	1.853285298042658484e+06	5.185782904963981127e+05	2.317799290939207554e+09
1.369657632129505243e-03	1.206504694165023863e+08	1.827615972940476378e+06	5.151268993611150654e+05	2.228082141004598141e+09
1.398683623539492566e-03	1.169324852021545023e+08	1.802278195709089981e+06	5.117174204100593925e+05	2.140200913135098457e+09
1.428324738143458596e-03	1.131988784709511548e+08	1.776418548557312228e+06	5.082045186689718394e+05	2.052544906069806099e+09
1.458594011725036863e-03	1.095339046769845635e+08	1.750536291616189294e+06	5.046539030178327230e+05	1.967263859221448183e+09
1.489504756324154782e-03	1.059154551563631594e+08	1.724334134043881437e+06	5.010098909545769566e+05	1.884019776606905937e+09
1.521070566091505720e-03	1.024471535333702862e+08	1.698805966931419913e+06	4.974370566158429137e+05	1.804926276705841303e+09
1.553305323267072666e-03	9.910462331498181820e+07	1.673770977731457911e+06	4.939078484309594496e+05	1.729387036799010038e+09
1.586223204285366938e-03	9.583348480440407991e+07	1.648718723069180734e+06	4.903363988869903842e+05	1.656230719923187494e+09
1.619838686010041055e-03	9.267134349281950295e+07	1.624035419721948449e+06	4.867876107854931033e+05	1.586194976903387308e+09
1.654166552100628336e-03	8.961428468921566010e+07	1.599715442207188113e+06	4.832612087208238663e+05	1.519135592731596470e+09
1.689221899514206692e-03	8.665692279373441637e+07	1.575744727291878546e+06	4.797559749485392822e+05	1.454879981237346411e+09
1.725020145144853453e-03	8.379663152419030666e+07	1.552119149873983581e+06	4.762720874600388343e+05	1.393319837084409714e+09
1.761577032603788440e-03	8.103168905120058358e+07	1.528840517210854916e+06	4.728102856146896374e+05	1.334384204703397751e+09
1.798908639143220224e-03	7.835856770905828476e+07	1.505902966262231115e+06	4.693702336507316795e+05	1.277951847796633720e+09
1.837031382726912916e-03	7.577263077826684713e+07	1.483293794533804990e+06	4.659507929469368537e+05	1.223879237804396152e+09
1.875962029250603357e-03	7.327158587211154401e+07	1.461012391345714452e+06	4.625522264860005234e+05	1.172080277357590437e+09
1.915717699915417882e-03	7.085395006262296438e+07	1.439059986777794315e+06	4.591752538051988813e+05	1.122490637149451971e+09
1.956315878757565116e-03	6.851654793585336208e+07	1.417427792778036790e+06	4.558194069245736464e+05	1.075004873311634302e+09
1.997774420337589726e-03	6.625538814106580615e+07	1.396104208321226295e+06	4.524836197365684202e+05	1.029504793102169275e+09
2.040111557592579582e-03	6.406846984918954223e+07	1.375088720421817619e+06	4.491681541210302385e+05	9.859188290188516378e+08
2.083345909854779961e-03	6.195451521031340957e+07	1.354385143006102648e+06	4.458738040825164644e+05	9.441942028373001814e+08
2.127496491040134757e-03	5.991066968374037743e+07	1.333985410869813059e+06	4.426000762672963319e+05	9.042409168481111526e+08
2.172582718010372237e-03	5.793349822471149266e+07	1.313875945585143520e+06	4.393458788975712378e+05	8.659570236065878868e+08
2.218624419112281976e-03	5.602125316894041002e+07	1.294056134241507156e+06	4.361114631308634998e+05	8.292854628662939072e+08
2.265641842897974604e-03	5.417283399012036622e+07	1.274529533151180251e+06	4.328976123585344758e+05	7.941796547111959457e+08
2.313655667029933423e-03	5.238567756965634227e+07	1.255289957064177375e+06	4.297038489972031093e+05	7.605647719241312742e+08
2.362687007374795686e-03	5.065682733007144183e+07	1.236326417010485893e+06	4.265292001984605449e+05	7.283552424211416245e+08
2.412757427289825233e-03	4.898475802444484830e+07	1.217635830425296444e+06	4.233738303633938194e+05	6.975027025106205940e+08
2.463888947106213784e-03	4.736852037453848869e+07	1.199221023552012164e+06	4.202384954931500833e+05	6.679680744575490952e+08
2.516104053813336943e-03	4.580581568447138369e+07	1.181075553149451502e+06	4.171226685030922526e+05	6.396869617770903111e+08
2.569425710948245768e-03	4.429409950930713862e+07	1.163190651851953473e+06	4.140254832791101653e+05	6.125889190192161798e+08
2.623877368694733318e-03	4.283204082753829658e+07	1.145565520362663548e+06	4.109471768846142804e+05	5.866334864089604616e+08
2.679482974196439188e-03	4.141882024407975376e+07	1.128200880929244217e+06	4.078884189230086049e+05	5.617875702341121435e+08
2.736266982088478034e-03	4.005237854295538366e+07	1.111089131211874541e+06	4.048486023309068987e+05	5.379964275738489628e+08
2.794254365252289707e-03	3.873052612721133977e+07	1.094222176172552165e+06	4.018269196093071951e+05	5.152001050045043230e+08
2.853470625798387814e-03	3.745210148770632595e+07	1.077599821086510783e+06	3.988236272119653877e+05	4.933647155812779665e+08
2.913941806281861776e-03	3.621639689695200324e+07	1.061225182593315374e+06	3.958394879123118590e+05	4.724639518650363088e+08
2.975694501155571117e-03	3.502156962012419105e+07	1.045090073257526616e+06	3.928738306226205896e+05	4.524507679373328090e+08
3.038755868466027146e-03	3.386573552992636710e+07	1.029185055850983830e+06	3.899258138091432047e+05	4.332752035775842071e+08
3.103153641797168783e-03	3.274788114117468894e+07	1.013509834908171790e+06	3.869956844484278117e+05	4.149073723014315367e+08
3.168916142467233243e-03	3.166739468926239014e+07	9.980676672318562632e+05	3.840842044884283096e+05	3.973262108258792758e+08
3.236072291984112663e-03	3.062262884298705310e+07	9.828522447079537669e+05	3.811907557113100193e+05	3.804906371337444186e+08
3.304651624764658874e-03	2.961196242709717900e+07	9.678556387777423952e+05	3.783145825306809857e+05	3.643614773194856644e+08
3.374684301123556836e-03	2.863451122001496702e+07	9.530754726631917292e+05	3.754558283575121895e+05	3.489121186335042715e+08
3.446201120537424525e-03	2.768974587248831987e+07	9.385143273373170523e+05	3.726152231535490137e+05	3.341244064273627996e+08
3.519233535190044709e-03	2.677619527077757195e+07	9.241660300979234744e+05	3.697921184598750551e+05	3.199631414834753275e+08
3.593813663804625805e-03	2.589246453714179993e+07	9.100244266806476517e+05	3.669858675451070885e+05	3.063959246325553060e+08
3.669974305769219299e-03	2.503778217507448792e+07	8.960891042684015119e+05	3.641967060147674056e+05	2.934014092815679908e+08
3.747748955561452412e-03	2.421169008561687917e+07	8.823606157814308535e+05	3.614252575559891993e+05	2.809647566291075945e+08
3.827171817478984984e-03	2.341287540788487718e+07	8.688318801124092424e+05	3.586707920886379434e+05	2.690541454217049479e+08
3.908277820682117681e-03	2.264013813831267506e+07	8.554974332606524695e+05	3.559327190846989979e+05	2.576428647663094699e+08
3.991102634555192957e-03	2.189280525668567419e+07	8.423570822222388815e+05	3.532112842390158912e+05	2.467130188510016501e+08
4.075682684393532908e-03	2.117047979122647643e+07	8.294136637508105487e+05	3.505072251339985523e+05	2.362532254963813722e+08
4.162055167422817371e-03	2.047199133203765750e+07	8.166595864462739555e+05	3.478197477638575365e+05	2.262364658855066299e+08
4.250258069157961290e-03	1.979630751950789616e+07	8.040880355151162948e+05	3.451481999758588499e+05	2.166394971266824603e+08
4.340330180108637088e-03	1.914284124839993566e+07	7.916989258422737475e+05	3.424928310098352958e+05	2.074473927277896106e+08
4.432311112838861061e-03	1.851124830390970036e+07	7.794949578764255857e+05	3.398543646144914674e+05	1.986500275896947682e+08
4.526241319388085715e-03	1.790048605432119220e+07	7.674702165848837467e+05	3.372320831136659835e+05	1.902256131457204223e+08
4.622162109061505458e-03	1.730966643678266555e+07	7.556193416970625985e+05	3.346254355864847894e+05	1.821551234512766600e+08
4.720115666597336779e-03	1.673827733318553492e+07	7.439403382069717627e+05	3.320345429809079506e+05	1.744251659516332746e+08
4.820145070719144588e-03	1.618601998854097351e+07	7.324353474701326340e+05	3.294600878858716460e+05	1.670269504036226571e+08
4.922294313081310678e-03	1.565196636054470390e+07	7.210985714601686923e+05	3.269013332073277561e+05	1.599419776833380163e+08
5.026608317615998724e-03	1.513535254325704277e+07	7.099258075226960937e+05	3.243578162184501998e+05	1.531543960280068815e+08
5.133132960290130720e-03	1.463573188184444606e+07	6.989169586577037117e+05	3.218297818699988420e+05	1.466544525456644893e+08
5.241915089281041530e-03	1.415284477373190038e+07	6.880727062157747569e+05	3.193178064979790361e+05	1.404335153183256984e+08
5.353002545579732367e-03	1.368586586660614796e+07	6.773863611874100752e+05	3.168210614629852935e+05	1.344756405831632018e+08
5.466444184030696055e-03	1.323413805979174189e+07	6.668541753880606266e+05	3.143391262731953175e+05	1.287677318440995663e+08
5.582289894817666839e-03	1.279727181383861415e+07	6.564761112568075769e+05	3.118722501743605826e+05	1.233014358193264157e+08
5.700590625404708227e-03	1.237504136636679247e+07	6.462545597947346978e+05	3.094211281627526041e+05	1.180702958863352686e+08
5.821398402942216249e-03	1.196671319230677374e+07	6.361829385591021273e+05	3.069849080924599548e+05	1.130607997960444987e+08
5.944766357147824969e-03	1.157172209816656634e+07	6.262563711776108248e+05	3.045630941009849194e+05	1.082613263477952182e+08
6.070748743672167193e-03	1.118972838929831423e+07	6.164746500278016319e+05	3.021559120976332924e+05	1.036647964737825543e+08
6.199400967959818945e-03	1.082053551493401825e+07	6.068399783647030126e+05	2.997640400776784518e+05	9.926594846994090080e+07
6.330779609615908021e-03	1.046349204756909423e+07	5.973469641931321239e+05	2.973866975611696835e+05	9.505347197121904790e+07
6.464942447289089879e-03	1.011811185604049265e+07	5.879922509516313439e+05	2.950235185174758662e+05	9.101812681262150407e+07
6.601948484081890736e-03	9.784098747887641191e+06	5.787743043888680404e+05	2.926746164495849516e+05	8.715338529448106885e+07
6.741857973499477616e-03	9.461281384144175798e+06	5.696946031074855709e+05	2.903405983873664518e+05	8.345480466848805547e+07
6.884732445948405985e-03	9.149081691712981090e+06	5.607478590807253495e+05	2.880206700580031611e+05	7.991259650268973410e+07
7.030634735796891313e-03	8.847081536016473547e+06	5.519313098258764949e+05	2.857145269409782486e+05	7.651945478432486951e+07
7.179629009008595825e-03	8.555022674782589078e+06	5.432449550527302781e+05	2.834224075697697117e+05	7.327005167049933970e+07
7.331780791361950343e-03	8.272755602479940280e+06	5.346899196083775023e+05	2.811448920977670932e+05	7.016056884613470733e+07
7.487156997267587974e-03	7.999767666420849040e+06	5.262597674503754824e+05	2.788810474613016122e+05	6.718236617896886170e+07
7.645825959196438613e-03	7.735699230433427729e+06	5.179519642358035198e+05	2.766305894045725581e+05	6.432937701923052967e+07
7.807857457731475631e-03	7.480325159668502398e+06	5.097665237534535700e+05	2.743937600506395684e+05	6.159713502816400677e+07
7.973322752256328111e-03	7.233514854892815463e+06	5.017053802798773395e+05	2.721712062468276126e+05	5.898287257680802047e+07
8.142294612294233985e-03	6.994813979827810079e+06	4.937631540061491542e+05	2.699620834052568534e+05	5.647905728330957890e+07
8.314847349511189298e-03	6.763913214317990467e+06	4.859363527065720991e+05	2.677660147382075083e+05	5.408046514440730214e+07
8.491056850397209546e-03	6.540616307856897824e+06	4.782245639703320921e+05	2.655831866314073559e+05	5.178335981601047516e+07
8.671000609640279119e-03	6.324809040136503056e+06	4.706295837427280494e+05	2.634142270968537196e+05	4.958530516448971629e+07
8.854757764207504128e-03	6.116089021864010952e+06	4.631466136827779119e+05	2.612583273414111754e+05	4.748020075475570560e+07
9.042409128148579806e-03	5.914190209016386420e+06	4.557735857833254267e+05	2.591152746949543362e+05	4.546374260925404727e+07
9.234037228136720080e-03	5.718941557759596966e+06	4.485095416699366760e+05	2.569851918941934709e+05	4.353265310764031857e+07
9.429726339762870002e-03	5.530243013676344417e+06	4.413553527663868736e+05	2.548685949899831321e+05	4.168473992611161619e+07
9.629562524599030379e-03	5.347738464365911670e+06	4.343063509950275766e+05	2.527646649519463535e+05	3.991488294011856616e+07
9.833633668047030499e-03	5.171199068041986786e+06	4.273606976156704477e+05	2.506732111976745655e+05	3.821948826343934983e+07
1.004202951798940403e-02	5.000475755679515190e+06	4.205184818957086536e+05	2.485944805048273993e+05	3.659614340702956170e+07
1.025484172425938229e-02	4.835480814541264437e+06	4.137808177017253474e+05	2.465290225170466874e+05	3.504273078904471546e+07
1.047216387894729824e-02	4.675899241613437422e+06	4.071421398033177247e+05	2.444758792330456781e+05	3.355486382159945369e+07
1.069409155756119272e-02	4.521534204330986366e+06	4.006006246453202912e+05	2.424348559672311239e+05	3.212956578859737888e+07
1.092072236105970547e-02	4.372255807053714991e+06	3.941563068012922304e+05	2.404061895356647146e+05	3.076476465393268317e+07
1.115215595877575537e-02	4.227987039607097395e+06	3.878107153469593031e+05	2.383904755996272143e+05	2.945884675590456277e+07
1.138849413224978825e-02	4.088449455850461964e+06	3.815593867421942414e+05	2.363868794676863181e+05	2.820815299472134933e+07
1.162984081999205582e-02	3.953473740867258515e+06	3.753998791461669607e+05	2.343951237256415188e+05	2.701002415404365584e+07
1.187630216319339981e-02	3.822946713814328890e+06	3.693317665361448308e+05	2.324153727249937656e+05	2.586269183254079893e+07
1.212798655240480798e-02	3.696800700513448101e+06	3.633564340311112464e+05	2.304481983937790501e+05	2.476484475333182514e+07
1.238500467520621366e-02	3.574789692150513642e+06	3.574697643137556151e+05	2.284927988830931718e+05	2.371336732268642634e+07
1.264746956488544717e-02	3.456768048695270438e+06	3.516704763717513997e+05	2.265490647167120187e+05	2.270624565050841495e+07
1.291549665014883955e-02	3.342637181258179713e+06	3.459579149707807228e+05	2.246171187228964991e+05	2.174182392712664977e+07
1.318920380588532899e-02	3.232337482897629496e+06	3.403326383614578517e+05	2.226974037508461915e+05	2.081897071145703644e+07
1.346871140500627631e-02	3.125651800082447007e+06	3.347906474804052268e+05	2.207891102000241517e+05	1.993503476065315679e+07
1.375414237138396570e-02	3.022454825219437480e+06	3.293307758647089940e+05	2.188921468901828630e+05	1.908836665833237022e+07
1.404562223391196511e-02	2.922660688220129348e+06	3.239531239897375344e+05	2.170067572301851760e+05	1.827764470979742706e+07
1.434327918171109106e-02	2.826216841306314338e+06	3.186585986395587097e+05	2.151334388488357654e+05	1.750197180481996760e+07
1.464724412050539583e-02	2.732931691279998049e+06	3.134424537449252093e+05	2.132712249930714897e+05	1.675894914761315286e+07
1.495765073019278586e-02	2.642697424422760960e+06	3.083035012761256075e+05	2.114200129857973079e+05	1.604721456128334068e+07
1.527463552363575450e-02	2.555439261127994396e+06	3.032418421854208573e+05	2.095800439249994815e+05	1.536568730311334878e+07
1.559833790669801906e-02	2.471110810100856237e+06	2.982586075639657793e+05	2.077518541144380579e+05	1.471363223507847264e+07
1.592890023955338338e-02	2.389543137313175015e+06	2.933500463130146381e+05	2.059346336131694261e+05	1.408908666355619952e+07
1.626646789929399317e-02	2.310643469361911062e+06	2.885144235542836832e+05	2.041281789604944934e+05	1.349083882539476082e+07
1.661118934386526108e-02	2.234346691219610162e+06	2.837514743402258027e+05	2.023326528942790756e+05	1.291796184970285743e+07
1.696321617735579643e-02	2.160611803088177927e+06	2.790622545052948408e+05	2.005485767092699825e+05	1.236982187807841599e+07
1.732270321667098503e-02	2.089289929321167758e+06	2.744433129594569909e+05	1.987751659061084501e+05	1.184480708204451203e+07
1.768980855961942850e-02	2.020301231564632151e+06	2.698937955899831722e+05	1.970123838373867911e+05	1.134193626404202916e+07
1.806469365444235767e-02	1.953589033271711553e+06	2.654131086658532731e+05	1.952603256773330504e+05	1.086042951218195260e+07
1.844752337081655841e-02	1.889117017034152523e+06	2.610017354796968575e+05	1.935193879353722150e+05	1.039968127667310834e+07
1.883846607236187159e-02	1.826754094908475410e+06	2.566563854449526698e+05	1.917887947825682058e+05	9.958344755341222510e+06
1.923769369068539445e-02	1.766431541369580897e+06	2.523763446568758809e+05	1.900685373618871963e+05	9.535608141249220818e+06
1.964538180099485026e-02	1.708100023273098748e+06	2.481616990841512161e+05	1.883588575735136983e+05	9.130871978479254991e+06
2.006170969931423895e-02	1.651727353607659694e+06	2.440128731635092117e+05	1.866601372929949430e+05	8.743605215224498883e+06
2.048686048133601528e-02	1.597198153488010867e+06	2.399260789599120326e+05	1.849714664758413855e+05	8.372637546097900718e+06
2.092102112294418406e-02	1.544453260799494339e+06	2.359007103857691982e+05	1.832928553391647292e+05	8.017288196172868833e+06
2.136438256244391209e-02	1.493449745932451217e+06	2.319368858962218510e+05	1.816245408553806483e+05	7.677055302435011603e+06
2.181713978453380873e-02	1.444159036284797126e+06	2.280354057367900095e+05	1.799669956441901741e+05	7.351520382775471546e+06
2.227949190605761978e-02	1.396479648966734530e+06	2.241928396071581228e+05	1.783193557934525888e+05	7.039708696977213025e+06
2.275164226357336353e-02	1.350360642573635560e+06	2.204080666743897891e+05	1.766814959087036259e+05	6.741024426019503735e+06
2.323379850277806913e-02	1.305764674217749387e+06	2.166811797043633997e+05	1.750536571039508854e+05	6.455028393772989511e+06
2.372617266982774559e-02	1.262666327838475117e+06	2.130129431787829089e+05	1.734363042311041791e+05	6.181379793392397463e+06
2.422898130459259780e-02	1.220976416037419112e+06	2.094004986258680001e+05	1.718286926167631464e+05	5.919259885584304109e+06
2.474244553588843265e-02	1.180651061196346069e+06	2.058429082250666979e+05	1.702307308935915062e+05	5.668202489924031310e+06
2.526679117872631872e-02	1.141657784863183508e+06	2.023398590477888065e+05	1.686425337896367710e+05	5.427808806017467752e+06
