# Data associated with arXiv:2208.14002
# 
# Scale-free velocity distribution, f(E), of a nfw1-2rhos8e6 dark matter distribution (see Eq. 2.7 and the surrounding discussion)
# 
# Published: 8/25/22, Jack Runburg and Kenny Kiriu, contact: runburg@hawaii.edu
# 
# 
# -----------------------------------------------------------------
# 
# 	 tilde E 		 | 		 tilde f
# 
# -----------------------------------------------------------------
6.944412415864362003e-05	2.469475726023998260e+10
7.038156879579440263e-05	2.369634172171055603e+10
7.133166812709149248e-05	2.271195725469490051e+10
7.229459297722660256e-05	2.174754199590394974e+10
7.327051647673489608e-05	2.082146338612931442e+10
7.425961409311614245e-05	1.992174404599130630e+10
7.526206366237757372e-05	1.906085592723451614e+10
7.627804542100082670e-05	1.823712697150498581e+10
7.730774203834148172e-05	1.744894794404590607e+10
7.835133864946526388e-05	1.669478515065432930e+10
7.940902288842670710e-05	1.597317674887949562e+10
8.048098492199843982e-05	1.528272426690611076e+10
8.156741748385366712e-05	1.462208207247823715e+10
8.266851590921195955e-05	1.398995841960016060e+10
8.378447816995016474e-05	1.338512797883436966e+10
8.491550491018960895e-05	1.280641621317052650e+10
8.606179948236154027e-05	1.225269541605276299e+10
8.722356798375959538e-05	1.172288362908791733e+10
8.840101929358677095e-05	1.121595325141162872e+10
8.959436511049993540e-05	1.073092078052843666e+10
9.080381999066353626e-05	1.026683691106673813e+10
9.202960138631423770e-05	9.822797289024364471e+09
9.327192968484798101e-05	9.397940166749315262e+09
9.453102824843326248e-05	8.991437012445343018e+09
9.580712345415859778e-05	8.602497012613237381e+09
9.710044473472311736e-05	8.230363305107560158e+09
9.841122461967435875e-05	7.874306197798154831e+09
9.973969877720409763e-05	7.533633479971029282e+09
1.010861060565063920e-04	7.207684482893668175e+09
1.024506885307091694e-04	6.895821711189684868e+09
1.038336915403824466e-04	6.597435240635809898e+09
1.052353637376361392e-04	6.311945655977683067e+09
1.066559571308111460e-04	6.038797338479302406e+09
1.080957271297732500e-04	5.777456121336561203e+09
1.095549325918197700e-04	5.527411403134538651e+09
1.110338358682032175e-04	5.288175728575030327e+09
1.125327028512849303e-04	5.059283723251230240e+09
1.140518030223222043e-04	4.840288340597517967e+09
1.155914094999031555e-04	4.630760948458686829e+09
1.171517990890320762e-04	4.430293550269880295e+09
1.187332523308784850e-04	4.238495666191966534e+09
1.203360535531980576e-04	4.054992256103126526e+09
1.219604909214308714e-04	3.879424406246576309e+09
1.236068564904927954e-04	3.711449565954282284e+09
1.252754462572612288e-04	3.550740735690218449e+09
1.269665602137731611e-04	3.396983490315829277e+09
1.286805024011378304e-04	3.249876708640758038e+09
1.304175809641766907e-04	3.109133816370315075e+09
1.321781082068029952e-04	2.974479928174983501e+09
1.339624006481447086e-04	2.845651643578212261e+09
1.357707790794278791e-04	2.722397429009985924e+09
1.376035686216242095e-04	2.604476180621378422e+09
1.394610987838788754e-04	2.491657414085990429e+09
1.413437035227247144e-04	2.383720785100327015e+09
1.432517213020946599e-04	2.280455117089082718e+09
1.451854951541461328e-04	2.181658664222980499e+09
1.471453727409021100e-04	2.087138292662976503e+09
1.491317064167273524e-04	1.996708922339208603e+09
1.511448532916436437e-04	1.910193584505284071e+09
1.531851752955021989e-04	1.827423174587467670e+09
1.552530392430192066e-04	1.748236003384926319e+09
1.573488168996886529e-04	1.672477039255940437e+09
1.594728850485860349e-04	1.599997840241695642e+09
1.616256255580697391e-04	1.530656601519008636e+09
1.638074254503992205e-04	1.464317771622754335e+09
1.660186769712742130e-04	1.400851470439340353e+09
1.682597776603158386e-04	1.340133325814969301e+09
1.705311304224954192e-04	1.282044546246836185e+09
1.728331436005262761e-04	1.226471442315402746e+09
1.751662310482347807e-04	1.173305106410272360e+09
1.775308122049162407e-04	1.122441412254734993e+09
1.799273121706977934e-04	1.073780781822848320e+09
1.823561617829134009e-04	1.027227882489565492e+09
1.848177976935121993e-04	9.826915045814137459e+08
1.873126624475084947e-04	9.400844304439513683e+08
1.898412045624884767e-04	8.993231287355060577e+08
1.924038786091925696e-04	8.603277234107352495e+08
1.950011452931796536e-04	8.230218085920817852e+08
1.976334715375963600e-04	7.873322319408781528e+08
2.003013305670584324e-04	7.531890583402630091e+08
2.030052019926664340e-04	7.205253687316515446e+08
2.057455718981653970e-04	6.892770918522206545e+08
2.085229329272650020e-04	6.593829220120604038e+08
2.113377843721407786e-04	6.307842844016453028e+08
2.141906322631229953e-04	6.034251133909887075e+08
2.170819894596000732e-04	5.772516881908513308e+08
2.200123757421414551e-04	5.522126794404504299e+08
2.229823179058678501e-04	5.282589895204330683e+08
2.259923498550764419e-04	5.053436157197436094e+08
2.290430126991406848e-04	4.834215774031289816e+08
2.321348548497069149e-04	4.624498476795914173e+08
2.352684321191961768e-04	4.423872924663101435e+08
2.384443078206371263e-04	4.231945301415691376e+08
2.416630528688411207e-04	4.048338743648605943e+08
2.449252458829441633e-04	3.872692905833602548e+08
2.482314732903274641e-04	3.704662933483296633e+08
2.515823294319411763e-04	3.543918865445410609e+08
2.549784166690461057e-04	3.390145122051887512e+08
2.584203454913915001e-04	3.243039637129569650e+08
2.619087346268562954e-04	3.102313485238774419e+08
2.654442111525592385e-04	2.967690383658609986e+08
2.690274106074761590e-04	2.838905782967205644e+08
2.726589771065654759e-04	2.715706654413791299e+08
2.763395634564350047e-04	2.597851058208245039e+08
2.800698312725682817e-04	2.485107371152300835e+08
2.838504510981284027e-04	2.377254015216152668e+08
2.876821025243621430e-04	2.274079084933370948e+08
2.915654743126260451e-04	2.175379786463862062e+08
2.955012645180581077e-04	2.080962126765564680e+08
2.994901806149129664e-04	1.990640511320968270e+08
3.035329396235839842e-04	1.904237366609335244e+08
3.076302682393432610e-04	1.821582848490438759e+08
3.117829029628032471e-04	1.742514427651795149e+08
3.159915902321505936e-04	1.666876624597315788e+08
3.202570865571447594e-04	1.594520722431025803e+08
3.245801586549353665e-04	1.525304417225666940e+08
3.289615835876991720e-04	1.459091573267523944e+08
3.334021489021330863e-04	1.395751948909475803e+08
3.379026527708277393e-04	1.335160959891277403e+08
3.424639041355380755e-04	1.277199407268568873e+08
3.470867228523941291e-04	1.221753249528109729e+08
3.517719398390527371e-04	1.168713407326062769e+08
3.565203972238412578e-04	1.117975515200462490e+08
3.613329484969064124e-04	1.069439730219707340e+08
3.662104586633905851e-04	1.023010542091281563e+08
3.711538043986828514e-04	9.785965620078708231e+07
3.761638742057473394e-04	9.361103797424672544e+07
3.812415685745779268e-04	8.954683812942358851e+07
3.863878001437914193e-04	8.565905546994321048e+07
3.916034938644036615e-04	8.194003626151897013e+07
3.968895871658020239e-04	7.838245910215680301e+07
4.022470301239551419e-04	7.497931930929017067e+07
4.076767856318873362e-04	7.172391606241934001e+07
4.131798295724399398e-04	6.860984012038032711e+07
4.187571509933681068e-04	6.563095927018024027e+07
4.244097522847804717e-04	6.278140578639486432e+07
4.301386493589779325e-04	6.005556784609968960e+07
4.359448718327001214e-04	5.744807752071087807e+07
4.418294632118345317e-04	5.495379897822307795e+07
4.477934810785999032e-04	5.256781883653593063e+07
4.538379972812534133e-04	5.028543612413293868e+07
4.599640981263488867e-04	4.810215530310288817e+07
4.661728845735738894e-04	4.601367503432289511e+07
4.724654724332178553e-04	4.401588035985239595e+07
4.788429925662834440e-04	4.210483521482025087e+07
4.853065910872991881e-04	4.027677426478029788e+07
4.918574295698473079e-04	3.852809506101065874e+07
4.984966852548661622e-04	3.685535143186063319e+07
5.052255512617455499e-04	3.525524728407048434e+07
5.120452368022578504e-04	3.372462907299412042e+07
5.189569673973729253e-04	3.226048008135218918e+07
5.259619850969771094e-04	3.085991484832374007e+07
5.330615487025501227e-04	2.952017256368023530e+07
5.402569339928341629e-04	2.823861244973452017e+07
5.475494339525322591e-04	2.701270857504419982e+07
5.549403590040829408e-04	2.584004420266275480e+07
5.624310372425430976e-04	2.471830764369282499e+07
5.700228146736332395e-04	2.364528757964537293e+07
5.777170554549724809e-04	2.261886852877062187e+07
5.855151421405585402e-04	2.163702689950969070e+07
5.934184759285298380e-04	2.069782700816306099e+07
6.014284769122519745e-04	1.979941701485125348e+07
6.095465843347812806e-04	1.894002556902940571e+07
6.177742568467347152e-04	1.811795822080247477e+07
6.261129727676354980e-04	1.733159395463307574e+07
6.345642303507511737e-04	1.657938221929797716e+07
6.431295480515006541e-04	1.585983972741002403e+07
6.518104647994523533e-04	1.517154762072910555e+07
6.606085402739782534e-04	1.451314860775253922e+07
6.695253551836064009e-04	1.388334435064477287e+07
6.785625115491162847e-04	1.328089287134379335e+07
6.877216329904412831e-04	1.270460612910537235e+07
6.970043650174065830e-04	1.215334758628445864e+07
7.064123753243812870e-04	1.162603013394501247e+07
7.159473540888689922e-04	1.112161387085455097e+07
7.256110142741081835e-04	1.063910399469369277e+07
7.354050919357340470e-04	1.017754894324452616e+07
7.453313465325372674e-04	9.736038480404345319e+06
7.553915612414089297e-04	9.313701855659324676e+06
7.655875432764830185e-04	8.909706191320274025e+06
7.759211242125799461e-04	8.523254748585684225e+06
7.863941603129623878e-04	8.153585361814299598e+06
7.970085328614973140e-04	7.799969012959556654e+06
8.077661484992606491e-04	7.461708340766957030e+06
8.186689395656517780e-04	7.138136262911304832e+06
8.297188644440799165e-04	6.828614673410994932e+06
8.409179079122698327e-04	6.532533179428790696e+06
8.522680814972725732e-04	6.249307898711482063e+06
8.637714238352137185e-04	5.978380319110142998e+06
8.754300010358674220e-04	5.719216199936589226e+06
8.872459070521043724e-04	5.471304489066581242e+06
8.992212640542845839e-04	5.234156333084834740e+06
9.113582228096622382e-04	5.007304135420554318e+06
9.236589630668572181e-04	4.790300600004366599e+06
9.361256939454820234e-04	4.582717857698840089e+06
9.487606543309670031e-04	4.384146637395262718e+06
9.615661132746704210e-04	4.194195447091267444e+06
9.745443703993394947e-04	4.012489808858667966e+06
9.876977563099830111e-04	3.838671495207121130e+06
1.001028633010249630e-03	3.672397862319373991e+06
1.014539394324345594e-03	3.513341148162644822e+06
1.028232466324618044e-03	3.361187827400855720e+06
1.042110307764825298e-03	3.215638002836147323e+06
1.056175410519209030e-03	3.076404804102504160e+06
1.070430300027420045e-03	2.943213827423139475e+06
1.084877535745387657e-03	2.815802590702323709e+06
1.099519711602210074e-03	2.693920017961577512e+06
1.114359456463127809e-03	2.577325945835514460e+06
1.129399434598697205e-03	2.465790643128740601e+06
1.144642346160198564e-03	2.359094361075828783e+06
1.160090927661401377e-03	2.257026898830892984e+06
1.175747952466745438e-03	2.159387198066025041e+06
1.191616231286029984e-03	2.065982927619623020e+06
1.207698612675704762e-03	1.976630119617030723e+06
1.223997983546822000e-03	1.891152797158976784e+06
1.240517269679781770e-03	1.809382632167999865e+06
1.257259436245907391e-03	1.731158610399642261e+06
1.274227488335984452e-03	1.656326716296408791e+06
1.291424471495827841e-03	1.584739628945972072e+06
1.308853472268978061e-03	1.516256423907860182e+06
1.326517618746625698e-03	1.450742303813360399e+06
1.344420081124834314e-03	1.388068330057857325e+06
1.362564072269201610e-03	1.328111166295197792e+06
1.380952848287000717e-03	1.270752834778954042e+06
1.399589709106946250e-03	1.215880488502058433e+06
1.418477999066656463e-03	1.163386178322557360e+06
1.437621107507922524e-03	1.113166650551469764e+06
1.457022469379891166e-03	1.065123137844885699e+06
1.476685565850235525e-03	1.019161163935306016e+06
1.496613924924473970e-03	9.751903587182664778e+05
1.516811122073472495e-03	9.331242776930134278e+05
1.537280780869295033e-03	8.928802357703166781e+05
1.558026573629480186e-03	8.543791376968302066e+05
1.579052222069859740e-03	8.175453266712112818e+05
1.600361497966038210e-03	7.823064337034124183e+05
1.621958223823614974e-03	7.485932338234329363e+05
1.643846273557323734e-03	7.163395101845755707e+05
1.666029573179122298e-03	6.854819232206603047e+05
1.688512101495426515e-03	6.559598856388594722e+05
1.711297890813551258e-03	6.277154423239993630e+05
1.734391027657497661e-03	6.006931566306774039e+05
1.757795653493226693e-03	5.748400005551516078e+05
1.781515965463482390e-03	5.501052498629415641e+05
1.805556217132375059e-03	5.264403840571360197e+05
1.829920719239750077e-03	5.037989907134793466e+05
1.854613840465564297e-03	4.821366739779962227e+05
1.879640008204314745e-03	4.614109667189278407e+05
1.905003709349710863e-03	4.415812462049092283e+05
1.930709491089693071e-03	4.226086548797721625e+05
1.956761961711908030e-03	4.044560230689508608e+05
1.983165791419849201e-03	3.870877957513534348e+05
2.009925713159693272e-03	3.704699620236089104e+05
2.037046523458074018e-03	3.545699886262350483e+05
2.064533083270844987e-03	3.393567552803767612e+05
2.092390318843032233e-03	3.248004932117915596e+05
2.120623222580089642e-03	3.108727265913568554e+05
2.149236853930602993e-03	2.975462165056183003e+05
2.178236340280607572e-03	2.847949066807039198e+05
2.207626877859616456e-03	2.725938726232277695e+05
2.237413732658593245e-03	2.609192720052627265e+05
2.267602241359916934e-03	2.497482977268794202e+05
2.298197812279574852e-03	2.390591330843663018e+05
2.329205926321695989e-03	2.288309086426890863e+05
2.360632137945584737e-03	2.190436612801942101e+05
2.392482076145431135e-03	2.096782939551202871e+05
2.424761445442809044e-03	2.007165390423712379e+05
2.457476026892208617e-03	1.921409219958992326e+05
2.490631679099655511e-03	1.839347265815668507e+05
2.524234339254682272e-03	1.760819621782957693e+05
2.558290024175754237e-03	1.685673322867541865e+05
2.592804831369338592e-03	1.613762041194774210e+05
2.627784940102803092e-03	1.544945800267115410e+05
2.663236612491260216e-03	1.479090696323437151e+05
2.699166194598629550e-03	1.416068637809192878e+05
2.735580117552970439e-03	1.355757089331694006e+05
2.772484898676370706e-03	1.298038831471679441e+05
2.809887142629500286e-03	1.242801730861436081e+05
2.847793542571054864e-03	1.189938519661094761e+05
2.886210881332234354e-03	1.139346577018281678e+05
2.925146032606483482e-03	1.090927741248924431e+05
2.964605962154631940e-03	1.044588102056733915e+05
3.004597729025675675e-03	1.000237823504631961e+05
3.045128486793348063e-03	9.577909640494568157e+04
3.086205484808702583e-03	9.171653100793872727e+04
3.127836069468875255e-03	8.782822101986251073e+04
3.170027685502247589e-03	8.410664241029934783e+04
3.212787877270213005e-03	8.054459721849193738e+04
3.256124290085696347e-03	7.713519947622244945e+04
3.300044671548708810e-03	7.387186162899635383e+04
3.344556872899070565e-03	7.074828145258908626e+04
3.389668850386566047e-03	6.775843005201003689e+04
3.435388666658686745e-03	6.489653953270953934e+04
3.481724492166224285e-03	6.215709191542142798e+04
3.528684606586879931e-03	5.953480826010960300e+04
3.576277400267157194e-03	5.702463814121630276e+04
3.624511375682687182e-03	5.462175000388595799e+04
3.673395148917277253e-03	5.232152140169376071e+04
3.722937451160858186e-03	5.011952999552743131e+04
3.773147130226567510e-03	4.801154494165935466e+04
3.824033152087189750e-03	4.599351850927374471e+04
3.875604602431189510e-03	4.406157813649684249e+04
3.927870688238568539e-03	4.221201881421270809e+04
3.980840739376749308e-03	4.044129587889170216e+04
4.034524210216762670e-03	3.874601800690365781e+04
4.088930681269944273e-03	3.712294049750280101e+04
4.144069860845389988e-03	3.556895908191452327e+04
4.199951586728401486e-03	3.408110365352708322e+04
4.256585827880170030e-03	3.265653253280876379e+04
4.313982686158955235e-03	3.129252688652362122e+04
4.372152398062960008e-03	2.998648542987618566e+04
4.431105336495203516e-03	2.873591924285110508e+04
4.490852012467949454e-03	2.753844696784046027e+04
4.551403077227368470e-03	2.639179012114863872e+04
4.612769323633770895e-03	2.529376864070562442e+04
4.674961688305911446e-03	2.424229661788728117e+04
4.737991253430049073e-03	2.323537819711149496e+04
4.801869248661931600e-03	2.227110369983274722e+04
4.866607053052592058e-03	2.134764586518752913e+04
4.932216196998135370e-03	2.046325628967598823e+04
4.998708364213818103e-03	1.961626201322507404e+04
5.066095393732695379e-03	1.880506224306287550e+04
5.134389281929063915e-03	1.802812522056450689e+04
5.203602184567057698e-03	1.728398524504622765e+04
5.273746418874517700e-03	1.657123981192324209e+04
5.344834465642579746e-03	1.588854685664369572e+04
5.416878971351135781e-03	1.523462214771757135e+04
5.489892750320500732e-03	1.460823680155480724e+04
5.563888786889529571e-03	1.400821485484278674e+04
5.638880237620502896e-03	1.343343099626131516e+04
5.714880433531019550e-03	1.288280834312051775e+04
5.791902882353226756e-03	1.235531639701606218e+04
5.869961270820607188e-03	1.184996899516006124e+04
5.949069466982679494e-03	1.136582239760027369e+04
6.029241522547849029e-03	1.090197346587017819e+04
6.110491675254712401e-03	1.045755788724910599e+04
6.192834351272108982e-03	1.003174852389695297e+04
6.276284167628196943e-03	9.623753777698522754e+03
6.360855934668866937e-03	9.232816067044181182e+03
6.446564658545731949e-03	8.858210353115260659e+03
6.533425543734087092e-03	8.499242735774894754e+03
6.621453995580986809e-03	8.155249101866448655e+03
6.710665622883897445e-03	7.825593850103799014e+03
6.801076240500085641e-03	7.509668643101046655e+03
6.892701871987086046e-03	7.206891241762884420e+03
6.985558752274611746e-03	6.916704377824372386e+03
7.079663330368031471e-03	6.638574666604848062e+03
7.175032272083913150e-03	6.371991583946848550e+03
7.271682462817784763e-03	6.116466481268992538e+03
7.369631010344469824e-03	5.871531626669045181e+03
7.468895247651272454e-03	5.636739339036136698e+03
7.569492735804311291e-03	5.411661065119127670e+03
7.671441266756137342e-03	5.195886602009863964e+03
7.774758866631403462e-03	4.989023295779225009e+03
7.879463798188334617e-03	4.790695271760801916e+03
7.985574564144694992e-03	4.600542724071167868e+03
8.093109910136337196e-03	4.418221218763993420e+03
8.202088827788608233e-03	4.243401029500080767e+03
8.312530557822965169e-03	4.075766507082752469e+03
8.424454593199137004e-03	3.915015473016268061e+03
8.537880682292973283e-03	3.760858638351194713e+03
8.652828832110425264e-03	3.613019048877439218e+03
8.769319311537850450e-03	3.471231557251472623e+03
8.887372654628956231e-03	3.335242309912589462e+03
9.007009663928611590e-03	3.204808266155076581e+03
9.128251413833882513e-03	3.079696730773675426e+03
9.251119253992504468e-03	2.959684911322796324e+03
9.375634812739107662e-03	2.844559486875243692e+03
9.501820000569356425e-03	2.734116210636073902e+03
9.629697013652439852e-03	2.628159511439116613e+03
9.759288337382035147e-03	2.526502125605094989e+03
9.890616749966040303e-03	2.428964739256508437e+03
1.002370532605531030e-02	2.335375648176599498e+03
1.015857744041175244e-02	2.245570429209433314e+03
1.029525677161584156e-02	2.159391630747616546e+03
1.043376730581388988e-02	2.076688471326639046e+03
1.057413334050541324e-02	1.997316554988436565e+03
1.071637948837053482e-02	1.921137597177306134e+03
1.086053068113800035e-02	1.848019164103772255e+03
1.100661217349369059e-02	1.777834421308645915e+03
1.115464954703005405e-02	1.710461893273947226e+03
1.130466871423665975e-02	1.645785235697154121e+03
1.145669592253181594e-02	1.583693014396554190e+03
1.161075775833580494e-02	1.524078497733618860e+03
1.176688115118562118e-02	1.466839451939933724e+03
1.192509337789153696e-02	1.411877953013058459e+03
1.208542206673555823e-02	1.359100199787503925e+03
1.224789520171203246e-02	1.308416338770681477e+03
1.241254112681043804e-02	1.259740295955057263e+03
1.257938855034052179e-02	1.212989615536974725e+03
1.274846654929995098e-02	1.168085304675432553e+03
1.291980457378454072e-02	1.124951686962069289e+03
