# Data associated with arXiv:2208.14002
# 
# Scale-free J-factor angular distribution, J_S(theta), of a nfw1-2rhos8e6 dark matter distribution (see Eq. 2.4 and the surrounding discussion)
# 
# Published: 8/25/22, Jack Runburg and Kenny Kiriu, contact: runburg@hawaii.edu
# 
# 
# -----------------------------------------------------------------
# 
# 	 tilde theta 		 | 	 tilde J s-wave 		 | 	 tilde J p-wave 		 | 	 tilde J d-wave 		 | 	 tilde J sommerfeld 
# 
# -----------------------------------------------------------------
1.000000000000000021e-03	1.815024122858022898e+07	1.556465668276320503e+05	3.460578419824557204e+04	5.054737597280723453e+08
1.021192151037671062e-03	1.784750736651672050e+07	1.545161414856121119e+05	3.448018458946909232e+04	4.949613640899972916e+08
1.042833409340945643e-03	1.753850097658303380e+07	1.533597514091077319e+05	3.435159014558496710e+04	4.842408933894872069e+08
1.064933292458827233e-03	1.722332227541507408e+07	1.521774936155275209e+05	3.422000016082357615e+04	4.733169215864208341e+08
1.087501519637659123e-03	1.690210448879570141e+07	1.509695619326802553e+05	3.408542371649804409e+04	4.621952806191074848e+08
1.110548016095517111e-03	1.657501905147519708e+07	1.497362636716665002e+05	3.394788146819683607e+04	4.508832544720426202e+08
1.134082917387199208e-03	1.624228190965612419e+07	1.484780401585463842e+05	3.380740787034268578e+04	4.393898135643053651e+08
1.158116573861711456e-03	1.590416130214074440e+07	1.471954925837285409e+05	3.366405401235449972e+04	4.277259027850459218e+08
1.182659555214217667e-03	1.556098759347160719e+07	1.458894154700120562e+05	3.351789134516892955e+04	4.159048032517120838e+08
1.207722655134462354e-03	1.521316607824627869e+07	1.445608415857498185e+05	3.336901676849919022e+04	4.039425995284027457e+08
1.233316896053688856e-03	1.486119432425431907e+07	1.432111050893348875e+05	3.321755992527310445e+04	3.918588055718092918e+08
1.259453533992170365e-03	1.450568694418914802e+07	1.418419359364164411e+05	3.306369435187046474e+04	3.796772458483586907e+08
1.286144063509461061e-03	1.414741368506523967e+07	1.404556132350813132e+05	3.290765603410959011e+04	3.674273843450025320e+08
1.313400222759557485e-03	1.378736456325949170e+07	1.390552447775405599e+05	3.274977809615181468e+04	3.551465414883399010e+08
1.341233998653187541e-03	1.342688075912676938e+07	1.376453697439145762e+05	3.259056747141492087e+04	3.428842141593720913e+08
1.369657632129505243e-03	1.306799845452866703e+07	1.362336590830490168e+05	3.243092607764182321e+04	3.307130288219354749e+08
1.398683623539492566e-03	1.271502448158334754e+07	1.348392173850814870e+05	3.227324962441038588e+04	3.187771749628919363e+08
1.428324738143458596e-03	1.235941677138481662e+07	1.334093710148388345e+05	3.211030853619330082e+04	3.068408233152642846e+08
1.458594011725036863e-03	1.200889856965318322e+07	1.319710500136827468e+05	3.194515639651527454e+04	2.951868042542858124e+08
1.489504756324154782e-03	1.166101996241084300e+07	1.305049408296479378e+05	3.177496050574387482e+04	2.837606813199655414e+08
1.521070566091505720e-03	1.132631219079160690e+07	1.290714602719774266e+05	3.160785615069509731e+04	2.728670416671594381e+08
1.553305323267072666e-03	1.100247121745896339e+07	1.276602384890080430e+05	3.144250299916706354e+04	2.624266244452585876e+08
1.586223204285366938e-03	1.068404456468873285e+07	1.262400257559785823e+05	3.127462864266697579e+04	2.522757148812842071e+08
1.619838686010041055e-03	1.037492552345404960e+07	1.248343699460608914e+05	3.110745074765108802e+04	2.425202025491645336e+08
1.654166552100628336e-03	1.007481672248121537e+07	1.234430881293238926e+05	3.094095960359133824e+04	2.331441873721680641e+08
1.689221899514206692e-03	9.783284903555219993e+06	1.220655773159859964e+05	3.077510405226309376e+04	2.241263111844312251e+08
1.725020145144853453e-03	9.500141349980976433e+06	1.207018957742376660e+05	3.060989779772288239e+04	2.154554869553699791e+08
1.761577032603788440e-03	9.225277848037004471e+06	1.193523446799035155e+05	3.044537826754500202e+04	2.071230273578959703e+08
1.798908639143220224e-03	8.958420456782724708e+06	1.180167186543077551e+05	3.028153309458943113e+04	1.991151642808316052e+08
1.837031382726912916e-03	8.699190511982226744e+06	1.166944174259271676e+05	3.011831339914679484e+04	1.914136108697369397e+08
1.875962029250603357e-03	8.447420588269960135e+06	1.153853648885532748e+05	2.995573050464242988e+04	1.840080643322503865e+08
1.915717699915417882e-03	8.203016571432381868e+06	1.140898165345284506e+05	2.979382118070678916e+04	1.768914773774518669e+08
1.956315878757565116e-03	7.965726470232646912e+06	1.128075501355904853e+05	2.963257048859004863e+04	1.700514565890449882e+08
1.997774420337589726e-03	7.735219403739131056e+06	1.115380459237009200e+05	2.947193288667861998e+04	1.634730102135382295e+08
2.040111557592579582e-03	7.511346846736002713e+06	1.102813646456504503e+05	2.931192200439468070e+04	1.571475822759720683e+08
2.083345909854779961e-03	7.294026896292017773e+06	1.090377950653958105e+05	2.915257550844578145e+04	1.510698121591047645e+08
2.127496491040134757e-03	7.083028147762482055e+06	1.078070908990311873e+05	2.899387598995974986e+04	1.452281709990173280e+08
2.172582718010372237e-03	6.878061507430097088e+06	1.065886673071168771e+05	2.883577853163516193e+04	1.396100032898492515e+08
2.218624419112281976e-03	6.678995236839259043e+06	1.053824993631037360e+05	2.867829502233210223e+04	1.342077760636572093e+08
2.265641842897974604e-03	6.485757979858924635e+06	1.041888622361047601e+05	2.852146292288531549e+04	1.290167326195397377e+08
2.313655667029933423e-03	6.298137604678452015e+06	1.030074978548457439e+05	2.836526246613966941e+04	1.240271584191933423e+08
2.362687007374795686e-03	6.115881545913986862e+06	1.018379624386596697e+05	2.820965326665047905e+04	1.192284157030671090e+08
2.412757427289825233e-03	5.938872948738085106e+06	1.006803181569417793e+05	2.805464897897269475e+04	1.146147367938342094e+08
2.463888947106213784e-03	5.767049644151677378e+06	9.953483676398410171e+04	2.790028724960589170e+04	1.101814317061039060e+08
2.516104053813336943e-03	5.600217407041219063e+06	9.840120849507400999e+04	2.774654538928475085e+04	1.059204513992980719e+08
2.569425710948245768e-03	5.438155663524581119e+06	9.727891026468086056e+04	2.759338297383999452e+04	1.018222282183812559e+08
2.623877368694733318e-03	5.280760656924446113e+06	9.616796907498137443e+04	2.744081266731791038e+04	9.788181340143013000e+07
2.679482974196439188e-03	5.127978287189171650e+06	9.506865226436132798e+04	2.728887207100927844e+04	9.409543528761015832e+07
2.736266982088478034e-03	4.979630938732462004e+06	9.398067662473316886e+04	2.713753723132424057e+04	9.045596989749978483e+07
2.794254365252289707e-03	4.835525966027759016e+06	9.290366884946731443e+04	2.698677277932347715e+04	8.695589824463631213e+07
2.853470625798387814e-03	4.695571347938532010e+06	9.183768382294753974e+04	2.683659220516831192e+04	8.359061213194106519e+07
2.913941806281861776e-03	4.559719867437864654e+06	9.078297465457950602e+04	2.668703278663512538e+04	8.035735243979145586e+07
2.975694501155571117e-03	4.427809347683562897e+06	8.973916858052262978e+04	2.653806647577375406e+04	7.724927430483528972e+07
3.038755868466027146e-03	4.299671551738477312e+06	8.870583470898981614e+04	2.638965791616248680e+04	7.426011989608262479e+07
3.103153641797168783e-03	4.175224877586597577e+06	8.768303050462152169e+04	2.624182051636137840e+04	7.138599642281693220e+07
3.168916142467233243e-03	4.054428070000608452e+06	8.667100609931627696e+04	2.609459167209615043e+04	6.862450451930958033e+07
3.236072291984112663e-03	3.937133234334710520e+06	8.566946651437054970e+04	2.594794382889657936e+04	6.596999683892869204e+07
3.304651624764658874e-03	3.823193464974770322e+06	8.467809223353897687e+04	2.580184589756368223e+04	6.341714886297398806e+07
3.374684301123556836e-03	3.712536411861503031e+06	8.369693281461227161e+04	2.565631113717041080e+04	6.096287352509927750e+07
3.446201120537424525e-03	3.605125972139110789e+06	8.272620748287459719e+04	2.551137612666555287e+04	5.860467790224006772e+07
3.519233535190044709e-03	3.500827450601634104e+06	8.176550270955869928e+04	2.536700821365135926e+04	5.633779121219510585e+07
3.593813663804625805e-03	3.399512576040088199e+06	8.081450607331490028e+04	2.522317782410936707e+04	5.415759600307855755e+07
3.669974305769219299e-03	3.301117192887704819e+06	7.987326686887908727e+04	2.507989811839182221e+04	5.206148584322319925e+07
3.747748955561452412e-03	3.205609712681272067e+06	7.894202692072966602e+04	2.493720636157284025e+04	5.004745925091079623e+07
3.827171817478984984e-03	3.112867554325686768e+06	7.802048136025130225e+04	2.479507174887888323e+04	4.811147738765809685e+07
3.908277820682117681e-03	3.022778742023729719e+06	7.710835658929058991e+04	2.465346730449584356e+04	4.624973020661888272e+07
3.991102634555192957e-03	2.935286401672242209e+06	7.620569392673528637e+04	2.451240602831870274e+04	4.445975201150886714e+07
4.075682684393532908e-03	2.850362834883407690e+06	7.531264859243400861e+04	2.437192220849487785e+04	4.273996428964870423e+07
4.162055167422817371e-03	2.767896628947474062e+06	7.442884823704011797e+04	2.423198125865079419e+04	4.108662910307283700e+07
4.250258069157961290e-03	2.687790035110953264e+06	7.355404797286087705e+04	2.409255827922325989e+04	3.949663884929095209e+07
4.340330180108637088e-03	2.609992635538387578e+06	7.268829183194278448e+04	2.395366633471357636e+04	3.796790354723006487e+07
4.432311112838861061e-03	2.534480120450335555e+06	7.183180686648719711e+04	2.381534209660749912e+04	3.649919418073907495e+07
4.526241319388085715e-03	2.461151320124413352e+06	7.098428365090467560e+04	2.367755206642752819e+04	3.508731167834609747e+07
4.622162109061505458e-03	2.389920916429040488e+06	7.014549115425031050e+04	2.354027319079910376e+04	3.372955029425876588e+07
4.720115666597336779e-03	2.320744218153898604e+06	6.931543861260273843e+04	2.340351719668380974e+04	3.242419420820197091e+07
4.820145070719144588e-03	2.253599862794424873e+06	6.849425584394164616e+04	2.326731700773229386e+04	3.116998189248838276e+07
4.922294313081310678e-03	2.188396067457018886e+06	6.768162178805000440e+04	2.313163717588790678e+04	2.996423878722989187e+07
5.026608317615998724e-03	2.125058371397992130e+06	6.687732587849395350e+04	2.299645632975551416e+04	2.880466380101071298e+07
5.133132960290130720e-03	2.063547166564733488e+06	6.608141554414562415e+04	2.286178779205887258e+04	2.768986261737769097e+07
5.241915089281041530e-03	2.003843644659647951e+06	6.529410707136491692e+04	2.272766789797747333e+04	2.661880144024065509e+07
5.353002545579732367e-03	1.945864623450332321e+06	6.451508369077689713e+04	2.259406043609256085e+04	2.558918395906725526e+07
5.466444184030696055e-03	1.889545120596654713e+06	6.374413770289623790e+04	2.246094518505418819e+04	2.459904783028836176e+07
5.582289894817666839e-03	1.834850035301981959e+06	6.298123249583481811e+04	2.232833161055737946e+04	2.364708269799306989e+07
5.700590625404708227e-03	1.781762788496414199e+06	6.222654320233569888e+04	2.219625415290494129e+04	2.273246008167095855e+07
5.821398402942216249e-03	1.730208052496006014e+06	6.147975883889396209e+04	2.206467562450510377e+04	2.185314957491480559e+07
5.944766357147824969e-03	1.680129123542348156e+06	6.074070390715944086e+04	2.193357811207263512e+04	2.100755174839035422e+07
6.070748743672167193e-03	1.631494899170022923e+06	6.000942355977810803e+04	2.180297489274863619e+04	2.019456564811780676e+07
6.199400967959818945e-03	1.584290740237906342e+06	5.928611908164374472e+04	2.167290152918833701e+04	1.941357221155006438e+07
6.330779609615908021e-03	1.538448491427115630e+06	5.857047136148012942e+04	2.154331969136787302e+04	1.866273462050979584e+07
6.464942447289089879e-03	1.493918676324465312e+06	5.786225756823785196e+04	2.141420978319415372e+04	1.794067543182715774e+07
6.601948484081890736e-03	1.450673739843517775e+06	5.716147081937773328e+04	2.128558222943828514e+04	1.724645613306830451e+07
6.741857973499477616e-03	1.408700729070316069e+06	5.646830342127295444e+04	2.115747214171295855e+04	1.657950254490317963e+07
6.884732445948405985e-03	1.367938033918926958e+06	5.578244427055878623e+04	2.102984032407291306e+04	1.593827618166760728e+07
7.030634735796891313e-03	1.328342485116799828e+06	5.510374936216708011e+04	2.090267213528440334e+04	1.532162094261184707e+07
7.179629009008595825e-03	1.289889672524695052e+06	5.443226434950031398e+04	2.077598092995447951e+04	1.472881626463037729e+07
7.331780791361950343e-03	1.252568118636616273e+06	5.376817345211261272e+04	2.064980160025688747e+04	1.415930308738019131e+07
7.487156997267587974e-03	1.216322170234397752e+06	5.311112138297461206e+04	2.052409153273511038e+04	1.361177685267108120e+07
7.645825959196438613e-03	1.181114164768982911e+06	5.246091516997627332e+04	2.039883371967035782e+04	1.308521138626809977e+07
7.807857457731475631e-03	1.146922480541148921e+06	5.181759621908358531e+04	2.027404123999085277e+04	1.257897438917546533e+07
7.973322752256328111e-03	1.113736929751269519e+06	5.118134173208204447e+04	2.014974836860775031e+04	1.209261975144602172e+07
8.142294612294233985e-03	1.081507278129589511e+06	5.055184682987738779e+04	2.002591447919980783e+04	1.162501708732541651e+07
8.314847349511189298e-03	1.050200669244508492e+06	4.992899501522485662e+04	1.990252799253213379e+04	1.117535801359975338e+07
8.491056850397209546e-03	1.019797954091296182e+06	4.931282962765730917e+04	1.977960229271062417e+04	1.074306809781909548e+07
8.671000609640279119e-03	9.902900725246068323e+05	4.870348564204985450e+04	1.965716898047002906e+04	1.032780296970433742e+07
8.854757764207504128e-03	9.616317157323857537e+05	4.810059582646109629e+04	1.953518228523072685e+04	9.928511240305023268e+06
9.042409128148579806e-03	9.337942215220028302e+05	4.750404932894295780e+04	1.941363140443432349e+04	9.544523362075893208e+06
9.234037228136720080e-03	9.067606348136300221e+05	4.691389180343870976e+04	1.929252994606239008e+04	9.175357117652524263e+06
9.429726339762870002e-03	8.805228767963221762e+05	4.633028644579860702e+04	1.917191140262624685e+04	8.820716581112241372e+06
9.629562524599030379e-03	8.550401176220952766e+05	4.575293435729419434e+04	1.905173392686655279e+04	8.479732027007872239e+06
9.833633668047030499e-03	8.302873522557264660e+05	4.518174359295484464e+04	1.893198869857707177e+04	8.151828577173964120e+06
1.004202951798940403e-02	8.062495683334202040e+05	4.461671945128143852e+04	1.881268646775346133e+04	7.836618447573928162e+06
1.025484172425938229e-02	7.829195555255574873e+05	4.405796217998245993e+04	1.869385597139832680e+04	7.533784197398103774e+06
1.047216387894729824e-02	7.602605386299336096e+05	4.350517163527974481e+04	1.857545390688847692e+04	7.242606282010599039e+06
1.069409155756119272e-02	7.382507061702221399e+05	4.295826425188403664e+04	1.845747239991577590e+04	6.962582004730884917e+06
1.092072236105970547e-02	7.168767691214245278e+05	4.241728391774307966e+04	1.833992525594571271e+04	6.693388090029343963e+06
1.115215595877575537e-02	6.961322760075618280e+05	4.188237784671211557e+04	1.822284487552290739e+04	6.434777099397992715e+06
1.138849413224978825e-02	6.759841305174207082e+05	4.135325936473179172e+04	1.810618868897997891e+04	6.186122615704487078e+06
1.162984081999205582e-02	6.564133056801258354e+05	4.082980969289240602e+04	1.798994625427607752e+04	5.947015600359263830e+06
1.187630216319339981e-02	6.374080395672466839e+05	4.031202669154192699e+04	1.787412732948440680e+04	5.717138165454508737e+06
1.212798655240480798e-02	6.189625501229307847e+05	3.980004799892283336e+04	1.775876360910521907e+04	5.496310072028382681e+06
1.238500467520621366e-02	6.010470702764098532e+05	3.929359244177350774e+04	1.764381202763206238e+04	5.283959312866159715e+06
1.264746956488544717e-02	5.836450030844899593e+05	3.879259664411861741e+04	1.752926720686975386e+04	5.079758568959887139e+06
1.291549665014883955e-02	5.667459411122406600e+05	3.829710153064880433e+04	1.741514313554003456e+04	4.883449208683487028e+06
1.318920380588532899e-02	5.503446865296427859e+05	3.780723122920442256e+04	1.730147029587437282e+04	4.694870601253136992e+06
1.346871140500627631e-02	5.344144909560213564e+05	3.732266150801221374e+04	1.718820041403310825e+04	4.513537865000805818e+06
1.375414237138396570e-02	5.189408744159643538e+05	3.684330900563737669e+04	1.707532678205344564e+04	4.339155435458736494e+06
1.404562223391196511e-02	5.039146296192773152e+05	3.636921405574861274e+04	1.696286334406767128e+04	4.171524413265048526e+06
1.434327918171109106e-02	4.893310764463382075e+05	3.590050021860581910e+04	1.685084055269600140e+04	4.010476432539094705e+06
1.464724412050539583e-02	4.751661929346487159e+05	3.543690346078199946e+04	1.673921516523649188e+04	3.855617634492043406e+06
1.495765073019278586e-02	4.614073463791325339e+05	3.497837299975354836e+04	1.662798402082273242e+04	3.706698260702868924e+06
1.527463552363575450e-02	4.480463930374538177e+05	3.452492612850348814e+04	1.651715886190392848e+04	3.563544671648307238e+06
1.559833790669801906e-02	4.350791097765726154e+05	3.407662525406714849e+04	1.640676325474971964e+04	3.426013353445082437e+06
1.592890023955338338e-02	4.224839384811829077e+05	3.363321080498831725e+04	1.629675391635655797e+04	3.293762887097551022e+06
1.626646789929399317e-02	4.102498569047689089e+05	3.319464060194738704e+04	1.618712897706455260e+04	3.166590886027032044e+06
1.661118934386526108e-02	3.983696636091605178e+05	3.276094909833277416e+04	1.607790208233092562e+04	3.044333396652720403e+06
1.696321617735579643e-02	3.868395409549982287e+05	3.233225163864189744e+04	1.596910319450227507e+04	2.926885728472113144e+06
1.732270321667098503e-02	3.756401539888063562e+05	3.190828948186940033e+04	1.586068821151516750e+04	2.813944828670033254e+06
1.768980855961942850e-02	3.647618852924907696e+05	3.148897795506196417e+04	1.575265019229298196e+04	2.705337447992517147e+06
1.806469365444235767e-02	3.541983685511777876e+05	3.107432726977203492e+04	1.564499962882130603e+04	2.600924114788990002e+06
1.844752337081655841e-02	3.439461439003724954e+05	3.066444978797276053e+04	1.553776595304701186e+04	2.500620164554225281e+06
1.883846607236187159e-02	3.339878842199097271e+05	3.025910048151898081e+04	1.543090564207852731e+04	2.404164795230685268e+06
1.923769369068539445e-02	3.243151964464489720e+05	2.985824841451034808e+04	1.532441897935066481e+04	2.311410869690634776e+06
1.964538180099485026e-02	3.149224528227675473e+05	2.946192319084394330e+04	1.521831936496859453e+04	2.222245514384219423e+06
2.006170969931423895e-02	3.058065132224079571e+05	2.907019423395974445e+04	1.511263078054230573e+04	2.136584430674773175e+06
2.048686048133601528e-02	2.969518594427247881e+05	2.868278824356174300e+04	1.500730504389469752e+04	2.054205001163014211e+06
2.092102112294418406e-02	2.883511655710393097e+05	2.829967747887316364e+04	1.490234278898168668e+04	1.974982157875020523e+06
2.136438256244391209e-02	2.799994596707646269e+05	2.792090114128542700e+04	1.479775901569511188e+04	1.898827576816666406e+06
2.181713978453380873e-02	2.718938846679738490e+05	2.754655533522074620e+04	1.469358153062944075e+04	1.825665957019396592e+06
2.227949190605761978e-02	2.640205525403011707e+05	2.717640943629735557e+04	1.458976723944828700e+04	1.755312565040340181e+06
2.275164226357336353e-02	2.563730678954291507e+05	2.681040475615904506e+04	1.448631261556753998e+04	1.687655767840410583e+06
2.323379850277806913e-02	2.489470395951780374e+05	2.644854448360346214e+04	1.438322711259545213e+04	1.622613733212385559e+06
2.372617266982774559e-02	2.417398618885432370e+05	2.609091656885280463e+04	1.428053728118904473e+04	1.560126076357657788e+06
2.422898130459259780e-02	2.347391160659122397e+05	2.573729865900518416e+04	1.417820060497865052e+04	1.500030601054576226e+06
2.474244553588843265e-02	2.279392173490624991e+05	2.538767340296592010e+04	1.407621968055293291e+04	1.442242433166345116e+06
2.526679117872631872e-02	2.213362884390607069e+05	2.504207623172569583e+04	1.397460960652289032e+04	1.386689156854167115e+06
