# Data associated with arXiv:2208.14002
# 
# Scale-free J-factor angular distribution, J_S(theta), of a nfw1-7rhos4e4 dark matter distribution (see Eq. 2.4 and the surrounding discussion)
# 
# Published: 8/25/22, Jack Runburg and Kenny Kiriu, contact: runburg@hawaii.edu
# 
# 
# -----------------------------------------------------------------
# 
# 	 tilde theta 		 | 	 tilde J s-wave 		 | 	 tilde J p-wave 		 | 	 tilde J d-wave 		 | 	 tilde J sommerfeld 
# 
# -----------------------------------------------------------------
1.000000000000000021e-03	1.620559561078225586e+12	8.064400755767867432e+11	3.210206888217104492e+12	4.024355875359425781e+12
1.021192151037671062e-03	1.580629313370390137e+12	7.919022699291187744e+11	3.175923863861571777e+12	3.915049461671756348e+12
1.042833409340945643e-03	1.539944290577838623e+12	7.770685168964056396e+11	3.140883812660996582e+12	3.803737848023551758e+12
1.064933292458827233e-03	1.498525944283253906e+12	7.619442226701829834e+11	3.105092950450662109e+12	3.690486791255908691e+12
1.087501519637659123e-03	1.456400938382690674e+12	7.465364395514106445e+11	3.068560731317460449e+12	3.575377074601093262e+12
1.110548016095517111e-03	1.413601942904472656e+12	7.308541230944724121e+11	3.031300381893395020e+12	3.458506781568154297e+12
1.134082917387199208e-03	1.370168590892246338e+12	7.149084433446315918e+11	2.993329554277644043e+12	3.339994034342887695e+12
1.158116573861711456e-03	1.326148651061332520e+12	6.987131683891325684e+11	2.954671140466885254e+12	3.219980345045490234e+12
1.182659555214217667e-03	1.281599494847520508e+12	6.822851478730433350e+11	2.915354314998570312e+12	3.098634799852412109e+12
1.207722655134462354e-03	1.236589980651512451e+12	6.656449405691221924e+11	2.875415915141340820e+12	2.976159417230152832e+12
1.233316896053688856e-03	1.191202958448363281e+12	6.488176607313824463e+11	2.834902349639975098e+12	2.852796240025276367e+12
1.259453533992170365e-03	1.145538756428865234e+12	6.318341800423859863e+11	2.793872397251912109e+12	2.728837147540874023e+12
1.286144063509461061e-03	1.099720358383343262e+12	6.147329618969980469e+11	2.752401651076400391e+12	2.604638296316978027e+12
1.313400222759557485e-03	1.053901854821655151e+12	5.975631681300936279e+11	2.710590418448737305e+12	2.480643392641715820e+12
1.341233998653187541e-03	1.008284437951516846e+12	5.803908294394781494e+11	2.668580311243078125e+12	2.357426956651238770e+12
1.369657632129505243e-03	9.631554874083990479e+11	5.633148408620412598e+11	2.626599883418152832e+12	2.235797548664428711e+12
1.398683623539492566e-03	9.190543831942493896e+11	5.465393111245644531e+11	2.585182789618421875e+12	2.117223387811378662e+12
1.428324738143458596e-03	8.752859404070866699e+11	5.296864059481361694e+11	2.543009927890072754e+12	2.000122966738847168e+12
1.458594011725036863e-03	8.330037116768626709e+11	5.131350823089842529e+11	2.500909397499765625e+12	1.887787639055230957e+12
1.489504756324154782e-03	7.920776154202835693e+11	4.967856051229113770e+11	2.458435422406996094e+12	1.780029417943923584e+12
1.521070566091505720e-03	7.534565847380560303e+11	4.811089253442533569e+11	2.417134127538717285e+12	1.679103077634360840e+12
1.553305323267072666e-03	7.168247236110400391e+11	4.659960606850994873e+11	2.376721838942006836e+12	1.584114026292527832e+12
1.586223204285366938e-03	6.816264804254661865e+11	4.511965247142245483e+11	2.336403357245454102e+12	1.493630247143267334e+12
1.619838686010041055e-03	6.481712789144660645e+11	4.368834028084049072e+11	2.296776346033463867e+12	1.408326611206849854e+12
1.654166552100628336e-03	6.163687365071798096e+11	4.230382797462096558e+11	2.257825135278159668e+12	1.327896571996760986e+12
1.689221899514206692e-03	5.861107003901207275e+11	4.096371230150153809e+11	2.219521427533174805e+12	1.251992379111739258e+12
1.725020145144853453e-03	5.573308338618731689e+11	3.966679712768696289e+11	2.181859646031466064e+12	1.180382013117164062e+12
1.761577032603788440e-03	5.299767433952502441e+11	3.841226910991724243e+11	2.144841375918320068e+12	1.112877901932023682e+12
1.798908639143220224e-03	5.039730762549458008e+11	3.719863462995189819e+11	2.108453111998981201e+12	1.049240927306221313e+12
1.837031382726912916e-03	4.792324123505302124e+11	3.602369015394756470e+11	2.072667663597754150e+12	9.891800942484356689e+11
1.875962029250603357e-03	4.557005483869426270e+11	3.488655785997702637e+11	2.037481601400720703e+12	9.325323684860921631e+11
1.915717699915417882e-03	4.333349213562303467e+11	3.378638425399981079e+11	2.002894785443163086e+12	8.791333071603115234e+11
1.956315878757565116e-03	4.120727766284893799e+11	3.272192655328090210e+11	1.968895219651340332e+12	8.287950190918054199e+11
1.997774420337589726e-03	3.918434309334277344e+11	3.169125542088150635e+11	1.935457471511124756e+12	7.812942616345175781e+11
2.040111557592579582e-03	3.726026044071387939e+11	3.069363177717186890e+11	1.902578728946647461e+12	7.364928668253366699e+11
2.083345909854779961e-03	3.543157112029121704e+11	2.972832178487302856e+11	1.870259197658202148e+12	6.942672640747022705e+11
2.127496491040134757e-03	3.369305219824224243e+11	2.879420174915701294e+11	1.838486807357564697e+12	6.544654602477414551e+11
2.172582718010372237e-03	3.203898864907804565e+11	2.788965695175964355e+11	1.807238781361048828e+12	6.169092716670988770e+11
2.218624419112281976e-03	3.046576325882207031e+11	2.701391656348834839e+11	1.776510849207541992e+12	5.814898976292117920e+11
2.265641842897974604e-03	2.897056484758298950e+11	2.616657323848892517e+11	1.746306806063770752e+12	5.481137131071893921e+11
2.313655667029933423e-03	2.754904919716237793e+11	2.534638372511300354e+11	1.716611095561690430e+12	5.166503312144830322e+11
2.362687007374795686e-03	2.619659549071186218e+11	2.455212482892059937e+11	1.687405496140899902e+12	4.869690517490830688e+11
2.412757427289825233e-03	2.491024898113941956e+11	2.378303307591154785e+11	1.658684750941571045e+12	4.589747557252742920e+11
2.463888947106213784e-03	2.368772388823553772e+11	2.303881537743771057e+11	1.630453401223469238e+12	4.326010278659391479e+11
2.516104053813336943e-03	2.252540918460395508e+11	2.231834579648656921e+11	1.602695876069795654e+12	4.077393826925217285e+11
2.569425710948245768e-03	2.141956873442826233e+11	2.162056677964802856e+11	1.575395578469623291e+12	3.842864212803120728e+11
2.623877368694733318e-03	2.036778894113526306e+11	2.094485770697059937e+11	1.548548443438428467e+12	3.621717465510316772e+11
2.679482974196439188e-03	1.936821078686717834e+11	2.029086754119190063e+11	1.522157121383141602e+12	3.413355021664802856e+11
2.736266982088478034e-03	1.841783431453943481e+11	1.965773868181181946e+11	1.496209046993691162e+12	3.216975244161840210e+11
2.794254365252289707e-03	1.751363874857346802e+11	1.904440663037239990e+11	1.470686482854361328e+12	3.031726879027730713e+11
2.853470625798387814e-03	1.665365260517363281e+11	1.845048468580661926e+11	1.445588515788881592e+12	2.857063982366815796e+11
2.913941806281861776e-03	1.583636336602896729e+11	1.787555620229756165e+11	1.420915553914792480e+12	2.692525652011942444e+11
2.975694501155571117e-03	1.505928026778623047e+11	1.731889140672710876e+11	1.396656069908870117e+12	2.537440965679664917e+11
3.038755868466027146e-03	1.431996086009913025e+11	1.677961829685117798e+11	1.372794722177076416e+12	2.391174066474469299e+11
3.103153641797168783e-03	1.361679480335367889e+11	1.625727741548084412e+11	1.349328202391460205e+12	2.253261788930175171e+11
3.168916142467233243e-03	1.294855122840536957e+11	1.575169659815420227e+11	1.326260816726467041e+12	2.123368074489026489e+11
3.236072291984112663e-03	1.231316311829272308e+11	1.526203297336560669e+11	1.303577585359830811e+12	2.000937370949587097e+11
3.304651624764658874e-03	1.170865566519110870e+11	1.478767688982803650e+11	1.281267512712241455e+12	1.885477960524803162e+11
3.374684301123556836e-03	1.113371357833888550e+11	1.432815956659634094e+11	1.259326019012357666e+12	1.776624078033179932e+11
3.446201120537424525e-03	1.058733479169161682e+11	1.388330371484786987e+11	1.237756638266568604e+12	1.674101913844513245e+11
3.519233535190044709e-03	1.006780491950581512e+11	1.345247704601247864e+11	1.216547467492003662e+12	1.577481446058819885e+11
3.593813663804625805e-03	9.573527218156883240e+10	1.303499863247286072e+11	1.195685043381265869e+12	1.486360757065463562e+11
3.669974305769219299e-03	9.103427428525050354e+10	1.263062245522600098e+11	1.175168862653557617e+12	1.400470016256990967e+11
3.747748955561452412e-03	8.656689453913493347e+10	1.223906696985493164e+11	1.154999272406624756e+12	1.319574306133483734e+11
3.827171817478984984e-03	8.231892127520903015e+10	1.185982413849832306e+11	1.135166206849372559e+12	1.243343038615337219e+11
3.908277820682117681e-03	7.827744372052017212e+10	1.149233167796052704e+11	1.115658089719454834e+12	1.171455619446747131e+11
3.991102634555192957e-03	7.443368824704666138e+10	1.113628052499008331e+11	1.096471989534904541e+12	1.103695809052011414e+11
4.075682684393532908e-03	7.078100590859579468e+10	1.079156524991836243e+11	1.077611748379848755e+12	1.039889463289471893e+11
4.162055167422817371e-03	6.730762174855283356e+10	1.045759539720855103e+11	1.059064093776677612e+12	9.797564756638810730e+10
4.250258069157961290e-03	6.400309629852145386e+10	1.013397730004678345e+11	1.040821088283859375e+12	9.230602128339855957e+10
4.340330180108637088e-03	6.086026419737125397e+10	9.820419007271269226e+10	1.022879440433804321e+12	8.696191640031739807e+10
4.432311112838861061e-03	5.787370650725009918e+10	9.516779196311035156e+10	1.005241304991681274e+12	8.193011522652163696e+10
4.526241319388085715e-03	5.503367182416608429e+10	9.222627335573504639e+10	9.878966433116881104e+11	7.718832658471549988e+10
4.622162109061505458e-03	5.233171881216805267e+10	8.937526082798426819e+10	9.708354365423320312e+11	7.271757935397006226e+10
4.720115666597336779e-03	4.976199579020915985e+10	8.661294660240182495e+10	9.540569105207524414e+11	6.850412967080139923e+10
4.820145070719144588e-03	4.732008452436074066e+10	8.393790586388888550e+10	9.375625077280814209e+11	6.453700331625271606e+10
4.922294313081310678e-03	4.499791334384371185e+10	8.134588134448518372e+10	9.213412100035458984e+11	6.079871594185076141e+10
5.026608317615998724e-03	4.278865640064910126e+10	7.883384085400827026e+10	9.053862686689365234e+11	5.727434858309361267e+10
5.133132960290130720e-03	4.068753510205975342e+10	7.639944894504264832e+10	8.896946744418824463e+11	5.395308355437957764e+10
5.241915089281041530e-03	3.869094545515522766e+10	7.404195092558750916e+10	8.742693407989121094e+11	5.082610824357978058e+10
5.353002545579732367e-03	3.679220956190059662e+10	7.175758761890373230e+10	8.590996725388852539e+11	4.787978630980967712e+10
5.466444184030696055e-03	3.498580761566950989e+10	6.954319804425497437e+10	8.441777933035996094e+11	4.510203952445418549e+10
5.582289894817666839e-03	3.326783745550645447e+10	6.739754867918157959e+10	8.295036024438129883e+11	4.248463651226744080e+10
5.700590625404708227e-03	3.163535821301682663e+10	6.531925823975641632e+10	8.150775316631711426e+11	4.002063184044177246e+10
5.821398402942216249e-03	3.008284746566640472e+10	6.330530788174040985e+10	8.008906213605874023e+11	3.769875960721247101e+10
5.944766357147824969e-03	2.860584145743579483e+10	6.135313518640663910e+10	7.869361877583820801e+11	3.551023312544954681e+10
6.070748743672167193e-03	2.720115386400892258e+10	5.946108078769606781e+10	7.732121095466368408e+11	3.344782335073900223e+10
6.199400967959818945e-03	2.586638384949142456e+10	5.762869044260668945e+10	7.597215460984692383e+11	3.150657953445910645e+10
6.330779609615908021e-03	2.459696665917306137e+10	5.585273683613984680e+10	7.464540056435915527e+11	2.967745579359581757e+10
6.464942447289089879e-03	2.338929238826178360e+10	5.413109773329196930e+10	7.334037440749201660e+11	2.795318061972255707e+10
6.601948484081890736e-03	2.224075936954021454e+10	5.246269956536421967e+10	7.205702293762425537e+11	2.632881743615631866e+10
6.741857973499477616e-03	2.114940666622752380e+10	5.084646973869441223e+10	7.079537167951187744e+11	2.479961888462911606e+10
6.884732445948405985e-03	2.011146292824516678e+10	4.928012861641693878e+10	6.955466971587492676e+11	2.335890474394261551e+10
7.030634735796891313e-03	1.912400857892294312e+10	4.776163406101309967e+10	6.833430896896276855e+11	2.200095880377331543e+10
7.179629009008595825e-03	1.818491942509052658e+10	4.628977034314929962e+10	6.713412105334738770e+11	2.072144586978999710e+10
7.331780791361950343e-03	1.729259281033333206e+10	4.486420666864302063e+10	6.595439363877252197e+11	1.951734155299679565e+10
7.487156997267587974e-03	1.644391522457827950e+10	4.348232584632865143e+10	6.479414374734896240e+11	1.838269875913587570e+10
7.645825959196438613e-03	1.563652428141763878e+10	4.214262705394689941e+10	6.365294993277388916e+11	1.731334578894893646e+10
7.807857457731475631e-03	1.486868605258738327e+10	4.084421736622325134e+10	6.253073020792785645e+11	1.630595423047714424e+10
7.973322752256328111e-03	1.413909037914452362e+10	3.958631324458936310e+10	6.142752847384090576e+11	1.535775806138106728e+10
8.142294612294233985e-03	1.344516710685545921e+10	3.836710624496817780e+10	6.034265307738862305e+11	1.446447268624952316e+10
8.314847349511189298e-03	1.278500540531827354e+10	3.718502306435759735e+10	5.927559135132929688e+11	1.362254292481862450e+10
8.491056850397209546e-03	1.215718970838863373e+10	3.603918466242195129e+10	5.822622338998535156e+11	1.282941943481514740e+10
8.671000609640279119e-03	1.156064845755908394e+10	3.492930664014743805e+10	5.719478263882738037e+11	1.208303303528203583e+10
8.854757764207504128e-03	1.099326094825093842e+10	3.385329562143744278e+10	5.618036209509167480e+11	1.137979088390403175e+10
9.042409128148579806e-03	1.045348149377147484e+10	3.281006303867268372e+10	5.518263907056389160e+11	1.071702692424034309e+10
9.234037228136720080e-03	9.940154518712499619e+09	3.179893095956220245e+10	5.420155819564027100e+11	1.009278463989216423e+10
9.429726339762870002e-03	9.452403106037557602e+09	3.081927299748963165e+10	5.323713173013497314e+11	9.505265398264442444e+09
9.629562524599030379e-03	8.988478237209733963e+09	2.986964183960636139e+10	5.228872958168450317e+11	8.951776107395254135e+09
9.833633668047030499e-03	8.547129469950220108e+09	2.894888386490147781e+10	5.135594607999926147e+11	8.430198033597320557e+09
1.004202951798940403e-02	8.127413506815199852e+09	2.805630032711144638e+10	5.043866965828422852e+11	7.938842237726430893e+09
1.025484172425938229e-02	7.728612417152555466e+09	2.719168781795030212e+10	4.953711515653013916e+11	7.476568687812146187e+09
1.047216387894729824e-02	7.349284273103871346e+09	2.635339705183638000e+10	4.865046690129079590e+11	7.040971312736211777e+09
1.069409155756119272e-02	6.988417421708417892e+09	2.554057859653890991e+10	4.777844492326770630e+11	6.630525619254573822e+09
1.092072236105970547e-02	6.645241904016501427e+09	2.475276229809132767e+10	4.692104098976065674e+11	6.243950114605931282e+09
1.115215595877575537e-02	6.319169619603809357e+09	2.398943541787566376e+10	4.607823923829246216e+11	5.880153925269131660e+09
1.138849413224978825e-02	6.009012346408101082e+09	2.324942595038227463e+10	4.524945757310629272e+11	5.537446115936009407e+09
1.162984081999205582e-02	5.713951539768155098e+09	2.253190550197944260e+10	4.443438351947712402e+11	5.214499827091461182e+09
1.187630216319339981e-02	5.433358768492041588e+09	2.183631546727553940e+10	4.363291191674835815e+11	4.910337206143151283e+09
1.212798655240480798e-02	5.166752013908629417e+09	2.116248726814789581e+10	4.284521699464826660e+11	4.624151070701174736e+09
1.238500467520621366e-02	4.913152554687035561e+09	2.050915962024818039e+10	4.207059302275602417e+11	4.354530053051358223e+09
1.264746956488544717e-02	4.671898019719617844e+09	1.987563560173081589e+10	4.130877103684457397e+11	4.100465978720070362e+09
1.291549665014883955e-02	4.442475531188646317e+09	1.926158767192897415e+10	4.055977462034605713e+11	3.861208579585612774e+09
1.318920380588532899e-02	4.224489796718689442e+09	1.866662572532395935e+10	3.982359099487482300e+11	3.636081183443891525e+09
1.346871140500627631e-02	4.017135002737568855e+09	1.808977603890902710e+10	3.909966267441868286e+11	3.423983823462922573e+09
1.375414237138396570e-02	3.819875096450632572e+09	1.753048092925761032e+10	3.838778954997757568e+11	3.224161832562027454e+09
1.404562223391196511e-02	3.632291537815998554e+09	1.698825785661756325e+10	3.768783326440688477e+11	3.035950132426742554e+09
1.434327918171109106e-02	3.454059973104633331e+09	1.646297939577050018e+10	3.699995775005635986e+11	2.858899361144522667e+09
1.464724412050539583e-02	3.284517234881192207e+09	1.595368332688467216e+10	3.632355575004580688e+11	2.692085407888237000e+09
1.495765073019278586e-02	3.123229447779127598e+09	1.545980487542174149e+10	3.565837741543678589e+11	2.534917837831616879e+09
1.527463552363575450e-02	2.969855085782254696e+09	1.498109677540221214e+10	3.500444659594727783e+11	2.386914149855911732e+09
1.559833790669801906e-02	2.824127842350983143e+09	1.451729943018757629e+10	3.436178474921561279e+11	2.247662781821355343e+09
1.592890023955338338e-02	2.685502188831777096e+09	1.406757365798204803e+10	3.372983210832648315e+11	2.116476545649891853e+09
1.626646789929399317e-02	2.553626903241782665e+09	1.363155629244322205e+10	3.310847814650877075e+11	1.992882869600888252e+09
1.661118934386526108e-02	2.428223325751525402e+09	1.320885251829696465e+10	3.249757695293412476e+11	1.876495330861948729e+09
1.696321617735579643e-02	2.309072677893180847e+09	1.279932938876315498e+10	3.189724385379042969e+11	1.766992836611123085e+09
1.732270321667098503e-02	2.195726399973771095e+09	1.240227810708999443e+10	3.130699043223687744e+11	1.663840033132375002e+09
1.768980855961942850e-02	2.087900135597651482e+09	1.201725204009368515e+10	3.072658391592145386e+11	1.566649025982291698e+09
1.806469365444235767e-02	1.985366546627696276e+09	1.164403306916250229e+10	3.015601943251787109e+11	1.475133045230333567e+09
1.844752337081655841e-02	1.887945778916977167e+09	1.128248626574574852e+10	2.959539110551682129e+11	1.389042472311130285e+09
1.883846607236187159e-02	1.795269177444970131e+09	1.093188300050570297e+10	2.904412695638107910e+11	1.307930324949386597e+09
1.923769369068539445e-02	1.707106485457530260e+09	1.059195888585679626e+10	2.850214618788646851e+11	1.231521971835664988e+09
1.964538180099485026e-02	1.623272245175743103e+09	1.026245149535546303e+10	2.796937264372319946e+11	1.159567019317547560e+09
2.006170969931423895e-02	1.543618520893336535e+09	9.943205440995075226e+09	2.744584723563768311e+11	1.091880791994638443e+09
2.048686048133601528e-02	1.467842456287504435e+09	9.633689158116031647e+09	2.693116202440053101e+11	1.028111863916386366e+09
2.092102112294418406e-02	1.395757572413867474e+09	9.333564624817060471e+09	2.642512195584373474e+11	9.680400006147102118e+08
2.136438256244391209e-02	1.327212595692493916e+09	9.042637314544424057e+09	2.592770062673838501e+11	9.114723891152536869e+08
2.181713978453380873e-02	1.262085758987783432e+09	8.760824265952249527e+09	2.543900835341028748e+11	8.582623129827013016e+08
2.227949190605761978e-02	1.200128381108291864e+09	8.487545270894138336e+09	2.495851961230957642e+11	8.081299746987830400e+08
2.275164226357336353e-02	1.141189408770215750e+09	8.222584056147585869e+09	2.448616086299228210e+11	7.609029032150603533e+08
2.323379850277806913e-02	1.085145465511255264e+09	7.965786659845886230e+09	2.402192931175578308e+11	7.164400754724634886e+08
2.372617266982774559e-02	1.031896255861390948e+09	7.716980966529455185e+09	2.356579054233409424e+11	6.746088747229641676e+08
2.422898130459259780e-02	9.812376811435428858e+08	7.475754528787003517e+09	2.311739424747192993e+11	6.352032349176967144e+08
2.474244553588843265e-02	9.330473587200753689e+08	7.241875490823176384e+09	2.267661365192455750e+11	5.980797132279794216e+08
2.526679117872631872e-02	8.872246787233518362e+08	7.015165727937400818e+09	2.224338106138602600e+11	5.631275145280889273e+08
