# Data associated with arXiv:2208.14002
# 
# Scale-free velocity distribution, f(E), of a nfw0-9rhos8e6 dark matter distribution (see Eq. 2.7 and the surrounding discussion)
# 
# Published: 8/25/22, Jack Runburg and Kenny Kiriu, contact: runburg@hawaii.edu
# 
# 
# -----------------------------------------------------------------
# 
# 	 tilde E 		 | 		 tilde f
# 
# -----------------------------------------------------------------
1.368946620424845740e-06	7.685971390535274744e+08
1.394420332386403939e-06	7.401560431191015244e+08
1.420368064666615536e-06	7.120494039865971804e+08
1.446798637828209431e-06	6.844416263525350094e+08
1.473721036562959315e-06	6.578601547174845934e+08
1.501144412745557630e-06	6.319193870615344048e+08
1.529078088544358883e-06	6.070017768767489195e+08
1.557531559589945890e-06	5.830670314940017462e+08
1.586514498202695032e-06	5.600760466261094809e+08
1.616036756680360787e-06	5.379915569504017830e+08
1.646108370646820065e-06	5.167779915265346766e+08
1.676739562463157315e-06	4.964012148917301297e+08
1.707940744702157469e-06	4.768281152726520300e+08
1.739722523687499067e-06	4.580267122422094345e+08
1.772095703098732830e-06	4.399667566202091575e+08
1.805071287643385487e-06	4.226191096009892821e+08
1.838660486797344185e-06	4.059556141073412895e+08
1.872874718614826782e-06	3.899491011129254699e+08
1.907725613609274629e-06	3.745738158567948341e+08
1.943225018706384183e-06	3.598050149519454837e+08
1.979385001270750868e-06	3.456185642435439229e+08
2.016217853207355073e-06	3.319914646853339672e+08
2.053736095139414941e-06	3.189017875390716195e+08
2.091952480663925638e-06	3.063282929470286369e+08
2.130880000686362318e-06	2.942506729315760136e+08
2.170531887836073145e-06	2.826494117737482786e+08
2.210921620963746836e-06	2.715055174050688148e+08
2.252062929722620849e-06	2.608010215651320815e+08
2.293969799234843914e-06	2.505187443189689815e+08
2.336656474844725929e-06	2.406419393432703316e+08
2.380137466960331700e-06	2.311545246377440393e+08
2.424427555985224397e-06	2.220412487514223158e+08
2.469541797341904138e-06	2.132874068480978608e+08
2.515495526588690826e-06	2.048787581719091237e+08
2.562304364631862190e-06	1.968016475409248769e+08
2.609984223034659366e-06	1.890430118512192965e+08
2.658551309425151806e-06	1.815903538483523726e+08
2.708022133004608157e-06	1.744315864791309536e+08
2.758413510158428423e-06	1.675550591053141356e+08
2.809742570171390358e-06	1.609496822258032858e+08
2.862026761049215436e-06	1.546048006549050212e+08
2.915283855448494467e-06	1.485101122047322094e+08
2.969531956716821527e-06	1.426557181732398868e+08
3.024789505045397763e-06	1.370321530326876342e+08
3.081075283735976599e-06	1.316303622974863052e+08
3.138408425584487734e-06	1.264415740402926356e+08
3.196808419383341045e-06	1.214573490369922966e+08
3.256295116544683822e-06	1.166696577865658849e+08
3.316888737846930531e-06	1.120707535922253430e+08
3.378609880306682663e-06	1.076531772671413571e+08
3.441479524178590382e-06	1.034097881848365813e+08
3.505519040085303601e-06	9.933370632679602504e+07
3.570750196280157357e-06	9.541833365650808811e+07
3.637195166044882290e-06	9.165734185215635598e+07
3.704876535224906726e-06	8.804463507453602552e+07
3.773817309904912170e-06	8.457437361318966746e+07
3.844040924227028301e-06	8.124094356352517009e+07
3.915571248354588462e-06	7.803893758483536541e+07
3.988432596583875779e-06	7.496316768974773586e+07
4.062649735606880860e-06	7.200866198435294628e+07
4.138247892927655361e-06	6.917065059357403219e+07
4.215252765435217149e-06	6.644453497582525015e+07
4.293690528135985652e-06	6.382589249816778302e+07
4.373587843048519729e-06	6.131048664439010620e+07
4.454971868263825069e-06	5.889425461759871989e+07
4.537870267174033115e-06	5.657328438218220323e+07
4.622311217872869269e-06	5.434381276234924048e+07
4.708323422730867390e-06	5.220223589721827954e+07
4.795936118148657720e-06	5.014509048488961160e+07
4.885179084491777356e-06	4.816904296367248148e+07
4.976082656210075467e-06	4.627089522139019519e+07
5.068677732145509640e-06	4.444757787620888650e+07
5.162995786031464007e-06	4.269613950893963873e+07
5.259068877187506669e-06	4.101374532473548502e+07
5.356929661412934736e-06	3.939767495680326968e+07
5.456611402082903402e-06	3.784531089220786095e+07
5.558147981451045546e-06	3.635414121441099793e+07
5.661573912162106385e-06	3.492175406605415046e+07
5.766924348978865601e-06	3.354582990100043267e+07
5.874235100726957845e-06	3.222414387344605848e+07
5.983542642462013134e-06	3.095455827715855092e+07
6.094884127862933868e-06	2.973501726617789641e+07
6.208297401855641893e-06	2.856354580540901795e+07
6.323821013471709484e-06	2.743825119184307382e+07
6.441494228945909534e-06	2.635731403027085960e+07
6.561357045057541820e-06	2.531898223455609754e+07
6.683450202719624826e-06	2.432157661198203266e+07
6.807815200820992125e-06	2.336348487136321142e+07
6.934494310325643679e-06	2.244315668156478554e+07
7.063530588634267380e-06	2.155910219486017898e+07
7.194967894212961384e-06	2.070989080715421215e+07
7.328850901493732881e-06	1.989415010321351886e+07
7.465225116052315465e-06	1.911056023440290987e+07
7.604136890067940040e-06	1.835785293877021968e+07
7.745633438070804720e-06	1.763481116157909855e+07
7.889762852982182736e-06	1.694026525525546074e+07
8.036574122452746940e-06	1.627309153819454461e+07
8.186117145504879180e-06	1.563221125220961682e+07
8.338442749484090797e-06	1.501658729590438120e+07
8.493602707325946809e-06	1.442522390950639360e+07
8.651649755143686919e-06	1.385716538086018898e+07
8.812637610143126516e-06	1.331149234479218721e+07
8.976620988870439921e-06	1.278732214614978433e+07
9.143655625799175247e-06	1.228380768895171210e+07
9.313798292263024726e-06	1.180013437138637342e+07
9.487106815740272943e-06	1.133551982279337198e+07
9.663640099497053317e-06	1.088921296831437573e+07
9.843458142595475871e-06	1.046049201290057227e+07
1.002662206027397687e-05	1.004866370903006569e+07
1.021319410470634469e-05	9.653062137858694419e+06
1.040323768614661664e-05	9.273047562865370885e+06
1.059681739446726500e-05	8.908005692248173058e+06
1.079399902109739953e-05	8.557346199648337439e+06
1.099484958136912121e-05	8.220502119076562114e+06
1.119943733727888824e-05	7.896929011853931472e+06
1.140783182067228506e-05	7.586103718499145471e+06
1.162010385685951603e-05	7.287523740315126255e+06
1.183632558866980288e-05	7.000706364819196053e+06
1.205657050095313064e-05	6.725188010017828085e+06
1.228091344553699261e-05	6.460523305386473425e+06
1.250943066664739585e-05	6.206284373491201550e+06
1.274219982680187228e-05	5.962060366021315567e+06
1.297930003318412970e-05	5.727456537087787874e+06
1.322081186450858437e-05	5.502093708650861867e+06
1.346681739838411946e-05	5.285607699563203380e+06
1.371740023918667152e-05	5.077648560745528899e+06
1.397264554644931339e-05	4.877880263764745556e+06
1.423264006378040286e-05	4.685980078929032199e+06
1.449747214831858421e-05	4.501637857135617174e+06
1.476723180073559135e-05	4.324555720249325037e+06
1.504201069579623604e-05	4.154447562623597682e+06
1.532190221348620632e-05	3.991038531056061853e+06
1.560700147071857137e-05	3.834064608763123862e+06
1.589740535362890489e-05	3.683272267458167858e+06
1.619321255047094632e-05	3.538417910315613262e+06
1.649452358512289147e-05	3.399267456299069803e+06
1.680144085121676573e-05	3.265596153072460555e+06
1.711406864690121865e-05	3.137188142935713287e+06
1.743251321025074697e-05	3.013836036521857604e+06
1.775688275533219827e-05	2.895340588391036727e+06
1.808728750894153856e-05	2.781510403378422838e+06
1.842383974802306755e-05	2.672161682680749334e+06
1.876665383778336357e-05	2.567117854173459113e+06
1.911584627051373091e-05	2.466209286940087099e+06
1.947153570513320109e-05	2.369273061160190962e+06
1.983384300746633864e-05	2.276152687857457437e+06
2.020289129126897362e-05	2.186697807975447737e+06
2.057880596001591812e-05	2.100763993581775110e+06
2.096171474946484619e-05	2.018212549947390100e+06
2.135174777101030651e-05	1.938910216331553645e+06
2.174903755584338860e-05	1.862728988437133376e+06
2.215371909993086645e-05	1.789545870200653793e+06
2.256592990982991630e-05	1.719242918633336667e+06
2.298581004935346234e-05	1.651706497045363300e+06
2.341350218710192512e-05	1.586827703492820729e+06
2.384915164487770719e-05	1.524501839436007198e+06
2.429290644699813668e-05	1.464628345834350213e+06
2.474491737052457528e-05	1.407110632104919991e+06
2.520533799642342507e-05	1.351855902527264552e+06
2.567432476167727263e-05	1.298775027439345606e+06
2.615203701236327685e-05	1.247782391816082643e+06
2.663863705771681207e-05	1.198795747601537267e+06
2.713429022519888247e-05	1.151736092593101552e+06
2.763916491658508526e-05	1.106527540432235925e+06
2.815343266509645831e-05	1.063097186260134680e+06
2.867726819358972211e-05	1.021375005821694504e+06
2.921084947382836277e-05	9.812937335592099698e+05
2.975435778685289279e-05	9.427887506677738857e+05
3.030797778447190245e-05	9.057979894485551631e+05
3.087189755189409843e-05	8.702618269425979815e+05
3.144630867152206849e-05	8.361229890989033738e+05
3.203140628793055050e-05	8.033264596310202032e+05
3.262738917404921967e-05	7.718193865377745824e+05
3.323445979857440533e-05	7.415510027318097418e+05
3.385282439463055068e-05	7.124725438317635562e+05
3.448269302970584041e-05	6.845371622168305330e+05
3.512427967688521178e-05	6.576998597179510398e+05
3.577780228740398498e-05	6.319174101925025461e+05
3.644348286454830965e-05	6.071482893345120829e+05
3.712154753892490461e-05	5.833526108847940341e+05
3.781222664512803606e-05	5.604920590781637002e+05
3.851575479982717999e-05	5.385298257898953743e+05
3.923237098130331435e-05	5.174305554383943672e+05
3.996231861045985480e-05	4.971602841590409516e+05
4.070584563333552904e-05	4.776863874741737964e+05
4.146320460514741951e-05	4.589775249048044789e+05
4.223465277589132701e-05	4.410035902311713435e+05
4.302045217753001612e-05	4.237356629994706018e+05
4.382086971279670505e-05	4.071459628539179103e+05
4.463617724564510622e-05	3.912078043553123716e+05
4.546665169337571119e-05	3.758955515486702789e+05
4.631257512046941610e-05	3.611845784811672056e+05
4.717423483416032269e-05	3.470512301795746898e+05
4.805192348177879066e-05	3.334727828873077524e+05
4.894593914989932081e-05	3.204274065759202931e+05
4.985658546532429735e-05	3.078941325173315709e+05
5.078417169793925285e-05	2.958528178524910472e+05
5.172901286547336111e-05	2.842841118400776759e+05
5.269142984020027233e-05	2.731694262474756106e+05
5.367174945761582169e-05	2.624909049839632935e+05
5.467030462712742066e-05	2.522313952051708766e+05
5.568743444479489450e-05	2.423744192059978086e+05
5.672348430815746701e-05	2.329041481132284389e+05
5.777880603318786851e-05	2.238053764314557484e+05
5.885375797341141281e-05	2.150634975034723757e+05
5.994870514123036830e-05	2.066644792871145473e+05
6.106401933149454534e-05	1.985948425411394855e+05
6.220007924735801875e-05	1.908416388242589892e+05
6.335727062846708830e-05	1.833924292212227883e+05
6.453598638151843386e-05	1.762352643249254907e+05
6.573662671323485165e-05	1.693586652266714082e+05
6.695959926580040151e-05	1.627516052935982007e+05
6.820531925480166039e-05	1.564034914870558423e+05
6.947420960972105217e-05	1.503041479347407876e+05
7.076670111702769558e-05	1.444437990310079476e+05
7.208323256591678177e-05	1.388130540870611730e+05
7.342425089674223205e-05	1.334028919364191242e+05
7.479021135219524681e-05	1.282046466136232048e+05
7.618157763127780552e-05	1.232099930868547817e+05
7.759882204612256348e-05	1.184109338547866937e+05
7.904242568171232519e-05	1.137997860619654530e+05
8.051287855855021472e-05	1.093691694017879199e+05
8.201067979833833084e-05	1.051119938354464248e+05
8.353633779271596644e-05	1.010214482329373568e+05
8.509037037511691509e-05	9.709098956730766804e+04
8.667330499580117237e-05	9.331433197088571615e+04
8.828567890012018892e-05	8.968543713762552943e+04
8.992803931007496742e-05	8.619850423951823905e+04
9.160094360922571316e-05	8.284796054993060534e+04
9.330495953101855099e-05	7.962845254170130647e+04
9.504066535058652745e-05	7.653483732665526622e+04
9.680865008009321645e-05	7.356217426989169326e+04
9.860951366768125651e-05	7.070571700720861554e+04
1.004438672000925928e-04	6.796090582188947883e+04
1.023123331090284173e-04	6.532336038449900661e+04
1.042155453813144411e-04	6.278887256101088133e+04
1.061541497729465546e-04	6.035339965823249804e+04
1.081288040270806511e-04	5.801305797188641009e+04
1.101401780960462241e-04	5.576411649624425627e+04
1.121889543674510243e-04	5.360299085331103561e+04
1.142758278944555183e-04	5.152623762330949103e+04
1.164015066302926489e-04	4.953054874155359721e+04
1.185667116671076666e-04	4.761274616990889626e+04
1.207721774792026279e-04	4.576977671944002213e+04
1.230186521707583359e-04	4.399870727579415689e+04
1.253068977281241749e-04	4.229671997866658785e+04
1.276376902767504705e-04	4.066110767401014164e+04
1.300118203428548972e-04	3.908926950516584475e+04
1.324300931199062672e-04	3.757870719348080456e+04
1.348933287400115285e-04	3.612702003727207921e+04
1.374023625503019105e-04	3.473190203527759877e+04
1.399580453943996420e-04	3.339113767192898376e+04
1.425612438990682927e-04	3.210259846815730634e+04
1.452128407661317151e-04	3.086423954969191254e+04
1.479137350697638245e-04	2.967409634031547466e+04
1.506648425592438162e-04	2.853028144183699260e+04
1.534670959672772153e-04	2.743098147510803028e+04
1.563214453239841328e-04	2.637445456583217674e+04
1.592288582766551513e-04	2.535902681617713461e+04
1.621903204153851328e-04	2.438309030607422028e+04
1.652068356046844486e-04	2.344510017472241452e+04
1.682794263211820167e-04	2.254357221078420480e+04
1.714091339975274818e-04	2.167708047148408150e+04
1.745970193726057015e-04	2.084425494441882256e+04
1.778441628481787625e-04	2.004377939979517760e+04
1.811516648520681758e-04	1.927438926747152436e+04
1.845206462080035590e-04	1.853486958267673617e+04
1.879522485122478274e-04	1.782405302808310807e+04
1.914476345171306764e-04	1.714081817353852603e+04
1.950079885216098627e-04	1.648408743400234380e+04
1.986345167689888434e-04	1.585282559564598159e+04
2.023284478519216903e-04	1.524603801041503175e+04
2.060910331248307211e-04	1.466276903396178386e+04
2.099235471238807492e-04	1.410210050633925675e+04
2.138272879946349870e-04	1.356315025108156260e+04
2.178035779275392953e-04	1.304507068776512278e+04
2.218537636013712805e-04	1.254704744959743766e+04
2.259792166347996572e-04	1.206829809755976385e+04
2.301813340461980216e-04	1.160807084934970226e+04
2.344615387218642276e-04	1.116564339155355447e+04
2.388212798927917058e-04	1.074032170191747718e+04
2.432620336201510726e-04	1.033143895491855437e+04
2.477853032896357968e-04	9.938354443148680730e+03
2.523926201148308959e-04	9.560452560078832903e+03
2.570855436497664222e-04	9.197141790443554783e+03
2.618656623108204053e-04	8.847853817144399727e+03
2.667345939081404113e-04	8.512042534394069662e+03
2.716939861867483552e-04	8.189183242569622962e+03
2.767455173775084103e-04	7.878771773259965812e+03
2.818908967581287730e-04	7.580323688914921149e+03
2.871318652243805172e-04	7.293373512945699076e+03
2.924701958717117775e-04	7.017473979426637015e+03
2.979076945874440719e-04	6.752195322330772797e+03
3.034462006537413654e-04	6.497124585791719255e+03
3.090875873615398753e-04	6.251864966343437118e+03
3.148337626356334496e-04	6.016035179618041184e+03
3.206866696711176980e-04	5.789268847913873287e+03
3.266482875813873812e-04	5.571213916136563967e+03
3.327206320578969599e-04	5.361532093638948936e+03
3.389057560418909528e-04	5.159898308854177230e+03
3.452057504083147640e-04	4.966000194564593585e+03
3.516227446621243377e-04	4.779537586771294627e+03
3.581589076472086624e-04	4.600222048514066046e+03
3.648164482681542161e-04	4.427776407646562802e+03
3.715976162250727460e-04	4.261934316852017218e+03
3.785047027617233196e-04	4.102439827589410925e+03
3.855400414271650008e-04	3.949046984041837732e+03
3.927060088511745580e-04	3.801519431619121860e+03
4.000050255336758576e-04	3.659630033638022269e+03
4.074395566484184943e-04	3.523160524195433482e+03
4.150121128611643467e-04	3.391901146093462557e+03
4.227252511626319680e-04	3.265650326268046229e+03
4.305815757164543575e-04	3.144214350124913835e+03
4.385837387224181282e-04	3.027407055955878604e+03
4.467344412952442795e-04	2.915049542141061011e+03
4.550364343591887790e-04	2.806969875044198488e+03
4.634925195587279363e-04	2.703002822451538577e+03
4.721055501856208651e-04	2.602989589723137215e+03
4.808784321226224740e-04	2.506777565097525439e+03
4.898141248041411799e-04	2.414220084162515832e+03
4.989156421941344077e-04	2.325176186254444019e+03
5.081860537815376978e-04	2.239510401841460407e+03
5.176284855935350121e-04	2.157092532047517125e+03
5.272461212269690962e-04	2.077797443674060105e+03
5.370422028982145589e-04	2.001504870822536532e+03
5.470200325118252131e-04	1.928099225532220316e+03
5.571829727482796374e-04	1.857469412012770363e+03
5.675344481711514129e-04	1.789508654253975919e+03
5.780779463540384024e-04	1.724114325277886564e+03
5.888170190275874996e-04	1.661187784889645172e+03
5.997552832469602762e-04	1.600634224714491211e+03
6.108964225800811573e-04	1.542362518025445752e+03
6.222441883170318775e-04	1.486285075935205668e+03
6.338024007009433877e-04	1.432317706763145907e+03
6.455749501807529767e-04	1.380379489304997151e+03
6.575657986861956680e-04	1.330392637520001244e+03
6.697789809254063283e-04	1.282282385011713586e+03
6.822186057055162943e-04	1.235976861932309248e+03
6.948888572766222542e-04	1.191406985578197464e+03
7.077939966995351519e-04	1.148506346400434040e+03
7.209383632376917305e-04	1.107211111974324240e+03
7.343263757736500329e-04	1.067459918813293143e+03
7.479625342505609106e-04	1.029193779052323862e+03
7.618514212852777346e-04	9.923559882799855814e+02
7.759977030969093109e-04	9.568920359697174263e+02
7.904061318435825004e-04	9.227495188441116625e+02
8.050815466403369713e-04	8.898780601037294673e+02
8.200288752598001735e-04	8.582292305679620767e+02
8.352531357325414111e-04	8.277564707763000342e+02
8.507594379754576360e-04	7.984150213622026513e+02
8.665529854486483897e-04	7.701618497005586050e+02
8.826390768412532535e-04	7.429555844860360594e+02
8.990231077867087998e-04	7.167564509022354287e+02
9.157105726079269210e-04	6.915262080239464240e+02
9.327070660928620449e-04	6.672280894655250449e+02
9.500182853009686785e-04	6.438267453983131645e+02
9.676500314010459550e-04	6.212881884752700898e+02
9.856082115409746380e-04	5.995797390828060998e+02
1.003898840749865590e-03	5.786699773075458779e+02
1.022528043873122128e-03	5.585286909212403543e+02
1.041502057540964754e-03	5.391268306315269001e+02
1.060827232170934902e-03	5.204364635035677793e+02
1.080510034004923681e-03	5.024307306802803623e+02
1.100557047181268929e-03	4.850838045824279448e+02
1.120974975842478714e-03	4.683708498705289003e+02
1.141770646279135527e-03	4.522679843881188617e+02
1.162951009110557753e-03	4.367522421049177979e+02
1.184523141502774601e-03	4.218015379430029839e+02
1.206494249424415596e-03	4.073946332189147483e+02
1.228871669941093356e-03	3.935111031520908682e+02
1.251662873548868614e-03	3.801313050391894990e+02
1.274875466547409613e-03	3.672363482524866640e+02
1.298517193453445004e-03	3.548080645026321349e+02
1.322595939455137792e-03	3.428289809448453980e+02
1.347119732907979452e-03	3.312822920181204154e+02
1.372096747872861896e-03	3.201518343685496006e+02
1.397535306696941161e-03	3.094220618698155363e+02
1.423443882637944434e-03	2.990780216339537674e+02
1.449831102532564853e-03	2.891053310698117116e+02
1.476705749509604152e-03	2.794901559834860336e+02
1.504076765748526678e-03	2.702191892453732294e+02
1.531953255284076824e-03	2.612796303812264682e+02
1.560344486857658756e-03	2.526591661919952401e+02
1.589259896958824907e-03	2.443459519211341444e+02
1.618709092221374494e-03	2.363285930023676258e+02
1.648701853218088442e-03	2.285961277356060179e+02
1.679248136990073303e-03	2.211380106538962593e+02
1.710358080267341532e-03	2.139440965507742192e+02
1.742042002615204130e-03	2.070046249313692783e+02
1.774310409632329872e-03	2.003102051900754930e+02
1.807173996201168024e-03	1.938518024041937053e+02
