# Data associated with arXiv:2208.14002
# 
# Scale-free J-factor angular distribution, J_S(theta), of a nfw0-9rhos8e6 dark matter distribution (see Eq. 2.4 and the surrounding discussion)
# 
# Published: 8/25/22, Jack Runburg and Kenny Kiriu, contact: runburg@hawaii.edu
# 
# 
# -----------------------------------------------------------------
# 
# 	 tilde theta 		 | 	 tilde J s-wave 		 | 	 tilde J p-wave 		 | 	 tilde J d-wave 		 | 	 tilde J sommerfeld 
# 
# -----------------------------------------------------------------
1.000000000000000021e-03	2.292802162093784500e+04	8.947640778188352897e+02	6.573020595367113401e+02	4.969304169063534355e+05
1.021192151037671062e-03	2.268701417470560045e+04	8.927682064155869739e+02	6.566223719787923301e+02	4.891244248094935901e+05
1.042833409340945643e-03	2.244067672516076345e+04	8.907233859451489479e+02	6.559258218057898375e+02	4.811549508871191647e+05
1.064933292458827233e-03	2.218905205585728618e+04	8.886294655256255055e+02	6.552123390880340139e+02	4.730243841560877045e+05
1.087501519637659123e-03	2.193220562261010855e+04	8.864864386530348384e+02	6.544819020292885625e+02	4.647359450337002054e+05
1.110548016095517111e-03	2.167022929864970138e+04	8.842944710579492948e+02	6.537345465668581710e+02	4.562938170676912996e+05
1.134082917387199208e-03	2.140324595220019182e+04	8.820539357197609434e+02	6.529703785170059973e+02	4.477033067574258312e+05
1.158116573861711456e-03	2.113141515778221947e+04	8.797654580082950133e+02	6.521895893471325962e+02	4.389710411232418264e+05
1.182659555214217667e-03	2.085494051017563834e+04	8.774299757531360910e+02	6.513924773326600643e+02	4.301052177942119888e+05
1.207722655134462354e-03	2.057407931004963393e+04	8.750488224239597912e+02	6.505794771114193509e+02	4.211159313771995367e+05
1.233316896053688856e-03	2.028915596544681466e+04	8.726238482936680612e+02	6.497512031388661171e+02	4.120156167935187696e+05
1.259453533992170365e-03	2.000058165269837264e+04	8.701576088232275197e+02	6.489085179147728013e+02	4.028196849075168138e+05
1.286144063509461061e-03	1.970888556298728508e+04	8.676536837743509523e+02	6.480526486923555467e+02	3.935475046659905347e+05
1.313400222759557485e-03	1.941477049178830202e+04	8.651172843822550931e+02	6.471854116283794838e+02	3.842240929729559575e+05
1.341233998653187541e-03	1.911922969034977723e+04	8.625566176653405819e+02	6.463097196927640198e+02	3.748835358384851716e+05
1.369657632129505243e-03	1.882386860791591243e+04	8.599868780797062300e+02	6.454310789700509758e+02	3.655780492655585404e+05
1.398683623539492566e-03	1.853244412599968200e+04	8.574502890599063676e+02	6.445651382734381514e+02	3.564198351831736509e+05
1.428324738143458596e-03	1.823563211135723759e+04	8.548122087829716520e+02	6.436607308526118914e+02	3.471768677810050431e+05
1.458594011725036863e-03	1.793924641756367782e+04	8.521226186559847520e+02	6.427356323444829513e+02	3.380455104446866317e+05
1.489504756324154782e-03	1.764010980281556476e+04	8.493266996455450908e+02	6.417685653354103579e+02	3.289575719306043466e+05
1.521070566091505720e-03	1.734915469397810375e+04	8.465743350904556337e+02	6.408162347650223865e+02	3.201971484010297572e+05
1.553305323267072666e-03	1.706437379380520724e+04	8.438413903939284637e+02	6.398695837371556081e+02	3.117046836523004458e+05
1.586223204285366938e-03	1.678017064693521752e+04	8.410481667532686743e+02	6.388981778698224616e+02	3.033338835303880624e+05
1.619838686010041055e-03	1.650075870104364731e+04	8.382542958716464909e+02	6.379246643124007505e+02	2.951909647886834573e+05
1.654166552100628336e-03	1.622604036226894095e+04	8.354596130238368232e+02	6.369490005322096522e+02	2.872683268497053068e+05
1.689221899514206692e-03	1.595582037348144149e+04	8.326634547827845836e+02	6.359709540388830646e+02	2.795559629780343384e+05
1.725020145144853453e-03	1.569006373050472575e+04	8.298660823038300123e+02	6.349905910804549194e+02	2.720497946802728693e+05
1.761577032603788440e-03	1.542879000265629838e+04	8.270681055598065541e+02	6.340080910572803532e+02	2.647475119414098444e+05
1.798908639143220224e-03	1.517190117532851036e+04	8.242694139450197781e+02	6.330234002637885169e+02	2.576428882914001879e+05
1.837031382726912916e-03	1.491921930209017955e+04	8.214693796382529172e+02	6.320362936701152421e+02	2.507268333761386166e+05
1.875962029250603357e-03	1.467071194586888669e+04	8.186682691398694942e+02	6.310468387493419868e+02	2.439957162513835938e+05
1.915717699915417882e-03	1.442639899410589896e+04	8.158667091687663060e+02	6.300552198473176304e+02	2.374476482185338973e+05
1.956315878757565116e-03	1.418618258393636643e+04	8.130645505944696652e+02	6.290613690502510735e+02	2.310768391300020157e+05
1.997774420337589726e-03	1.394990061124985914e+04	8.102611849947984410e+02	6.280650681046251975e+02	2.248753676289515279e+05
2.040111557592579582e-03	1.371752302887434053e+04	8.074568546778612017e+02	6.270663844206909516e+02	2.188395420082779019e+05
2.083345909854779961e-03	1.348906984476926664e+04	8.046520784428480511e+02	6.260655026900922167e+02	2.129681239111854520e+05
2.127496491040134757e-03	1.326444385042756767e+04	8.018466502038895669e+02	6.250623401261854042e+02	2.072551953478384821e+05
2.172582718010372237e-03	1.304349743309535188e+04	7.990399917526888203e+02	6.240566854448102276e+02	2.016939147599867138e+05
2.218624419112281976e-03	1.282620278810850141e+04	7.962323746413208028e+02	6.230486080216182927e+02	1.962813864169963927e+05
2.265641842897974604e-03	1.261257982035568784e+04	7.934244522655584433e+02	6.220383018293892974e+02	1.910160663773890410e+05
2.313655667029933423e-03	1.240253246049529480e+04	7.906159908574522888e+02	6.210256702898616368e+02	1.858929570774280000e+05
2.362687007374795686e-03	1.219592632843940737e+04	7.878064429448912733e+02	6.200105092716077024e+02	1.809058491584606818e+05
2.412757427289825233e-03	1.199273567571362946e+04	7.849960837333007930e+02	6.189928891834917977e+02	1.760521556859891862e+05
2.463888947106213784e-03	1.179298025954549666e+04	7.821855801853999992e+02	6.179730085924354626e+02	1.713306341880357941e+05
2.516104053813336943e-03	1.159656541531211224e+04	7.793746659859958754e+02	6.169507569621260927e+02	1.667366403665923863e+05
2.569425710948245768e-03	1.140336889299995346e+04	7.765627824319457204e+02	6.159259358817181464e+02	1.622647584328120283e+05
2.623877368694733318e-03	1.121336686118134276e+04	7.737501033945687823e+02	6.148986121056241245e+02	1.579122672433946864e+05
2.679482974196439188e-03	1.102657878601965785e+04	7.709372609029138630e+02	6.138689864542692476e+02	1.536784437750180077e+05
2.736266982088478034e-03	1.084291174004067580e+04	7.681239530996226677e+02	6.128369340154955580e+02	1.495586661803683673e+05
2.794254365252289707e-03	1.066225455074893762e+04	7.653096888072292359e+02	6.118022652053128922e+02	1.455482701044895512e+05
2.853470625798387814e-03	1.048458517435045542e+04	7.624947511565211471e+02	6.107650526991061497e+02	1.416451963054524094e+05
2.913941806281861776e-03	1.030992267422176701e+04	7.596798204906255023e+02	6.097255033308936163e+02	1.378483930491734063e+05
2.975694501155571117e-03	1.013817612619751526e+04	7.568645553301840891e+02	6.086834779816653054e+02	1.341539204394963162e+05
3.038755868466027146e-03	9.969244474987015565e+03	7.540484868905975873e+02	6.076387938964689965e+02	1.305575445203437848e+05
3.103153641797168783e-03	9.803107340185935755e+03	7.512319040409159925e+02	6.065915248191320188e+02	1.270574258402857522e+05
3.168916142467233243e-03	9.639783295267261565e+03	7.484155030443648684e+02	6.055418819813519349e+02	1.236527407744824304e+05
3.236072291984112663e-03	9.479183634482407797e+03	7.455988492988038843e+02	6.044897091780078426e+02	1.203397667358570616e+05
3.304651624764658874e-03	9.321216541918718576e+03	7.427813884031951375e+02	6.034348247182116438e+02	1.171147893409500975e+05
3.374684301123556836e-03	9.165863180788917816e+03	7.399633965845847570e+02	6.023773025238493801e+02	1.139759233881959517e+05
3.446201120537424525e-03	9.013141571868540268e+03	7.371455706451845344e+02	6.013173572759227454e+02	1.109227279770530149e+05
3.519233535190044709e-03	8.862965393919117560e+03	7.343274979560472957e+02	6.002548212423815812e+02	1.079516095152890048e+05
3.593813663804625805e-03	8.715251267720943360e+03	7.315087663623485241e+02	5.991895262388314904e+02	1.050593867684115685e+05
3.669974305769219299e-03	8.569981790965146502e+03	7.286896737533875239e+02	5.981215485127626152e+02	1.022446033885549114e+05
3.747748955561452412e-03	8.427174378050511223e+03	7.258709322043532666e+02	5.970511074684792447e+02	9.950653506841676426e+04
3.827171817478984984e-03	8.286745226511889996e+03	7.230520901751506244e+02	5.959780209718582000e+02	9.684211038827185985e+04
3.908277820682117681e-03	8.148618657024038839e+03	7.202327581412455402e+02	5.949021276338895632e+02	9.424845106197005953e+04
3.991102634555192957e-03	8.012778605411980607e+03	7.174132300103253783e+02	5.938235045080898544e+02	9.172424368488365144e+04
4.075682684393532908e-03	7.879241820776946952e+03	7.145941203777102828e+02	5.927423677880946116e+02	8.926886965817063174e+04
4.162055167422817371e-03	7.747927140032265925e+03	7.117748621753958105e+02	5.916585157467297904e+02	8.687941780109281535e+04
4.250258069157961290e-03	7.618765902653780358e+03	7.089550976176111590e+02	5.905717946497035200e+02	8.455343780681780481e+04
4.340330180108637088e-03	7.491743269342218809e+03	7.061351356686768668e+02	5.894822835001092471e+02	8.228959727993520210e+04
4.432311112838861061e-03	7.366875347725351276e+03	7.033156967506970432e+02	5.883902077248551450e+02	8.008760828695577220e+04
4.526241319388085715e-03	7.244083633958148312e+03	7.004962693115940056e+02	5.872953572744561370e+02	7.794469587601804233e+04
4.622162109061505458e-03	7.123305886945244310e+03	6.976765141239039849e+02	5.861975847009117615e+02	7.585869580943349865e+04
4.720115666597336779e-03	7.004528427754398763e+03	6.948567478617626421e+02	5.850969702993584178e+02	7.382857791106715740e+04
4.820145070719144588e-03	6.887766626316190013e+03	6.920376943396062188e+02	5.839937433024862230e+02	7.185383680710094632e+04
4.922294313081310678e-03	6.772944763549051459e+03	6.892188078516359155e+02	5.828876797174347075e+02	6.993209850495270803e+04
5.026608317615998724e-03	6.660006426489415389e+03	6.863996816044736988e+02	5.817786324368216810e+02	6.806137666461503250e+04
5.133132960290130720e-03	6.548939008536107394e+03	6.835805392809807017e+02	5.806666751339739676e+02	6.624070910691849713e+04
5.241915089281041530e-03	6.439757144942384912e+03	6.807621024879668994e+02	5.795520389171921352e+02	6.446969223127650912e+04
5.353002545579732367e-03	6.332387913632933305e+03	6.779437906651467074e+02	5.784344854084973804e+02	6.274613770726460643e+04
5.466444184030696055e-03	6.226780216992799978e+03	6.751253260956573286e+02	5.773138826136796524e+02	6.106836898612874211e+04
5.582289894817666839e-03	6.122922429303052013e+03	6.723070243014634570e+02	5.761903123548346457e+02	5.943544411022245185e+04
5.700590625404708227e-03	6.020828489057804290e+03	6.694896378724025681e+02	5.750640110728302261e+02	5.784717665635275625e+04
5.821398402942216249e-03	5.920428236679628753e+03	6.666725499305809990e+02	5.739347258678390062e+02	5.630143473837779311e+04
5.944766357147824969e-03	5.821675430966635759e+03	6.638555075230718785e+02	5.728023316865094330e+02	5.479676534210217505e+04
6.070748743672167193e-03	5.724559377496379966e+03	6.610388291157262302e+02	5.716669120929534529e+02	5.333240852957157767e+04
6.199400967959818945e-03	5.629093248301483982e+03	6.582231525494976268e+02	5.705286956987845315e+02	5.190799651265701686e+04
6.330779609615908021e-03	5.535209710416015696e+03	6.554077315110662312e+02	5.693874059157515148e+02	5.052167136830212257e+04
6.464942447289089879e-03	5.442866921903560979e+03	6.525923407490686259e+02	5.682429246328974841e+02	4.917213688185282081e+04
6.601948484081890736e-03	5.352055051119638847e+03	6.497773092054628705e+02	5.670953369574177714e+02	4.785873321518904413e+04
6.741857973499477616e-03	5.262786513669484521e+03	6.469633871944300836e+02	5.659448836592723637e+02	4.658115631982997002e+04
6.884732445948405985e-03	5.174996777473734255e+03	6.441499159269699248e+02	5.647912857744202029e+02	4.533776202028919215e+04
7.030634735796891313e-03	5.088648005354705674e+03	6.413366828766879735e+02	5.636344316056685102e+02	4.412740307188370207e+04
7.179629009008595825e-03	5.003731157033543241e+03	6.385240271284432083e+02	5.624744083202508591e+02	4.294942675837651041e+04
7.331780791361950343e-03	4.920257927001750431e+03	6.357127073215007158e+02	5.613114600619318253e+02	4.180367500932043913e+04
7.487156997267587974e-03	4.838166526161135153e+03	6.329019777954638357e+02	5.601452879861683414e+02	4.068853564115819609e+04
7.645825959196438613e-03	4.757422768077096407e+03	6.300915211159995124e+02	5.589757731928879139e+02	3.960300023362196225e+04
7.807857457731475631e-03	4.678018348002622588e+03	6.272816302066682965e+02	5.578029983017783024e+02	3.854649798966125672e+04
7.973322752256328111e-03	4.599964245905382086e+03	6.244730567066883395e+02	5.566272082711673193e+02	3.751880154521081568e+04
8.142294612294233985e-03	4.523201379538967558e+03	6.216650884504912256e+02	5.554480961708028417e+02	3.651854860042464861e+04
8.314847349511189298e-03	4.447698879978408513e+03	6.188575738149874041e+02	5.542655650583060378e+02	3.554484405378269003e+04
8.491056850397209546e-03	4.373449125104428276e+03	6.160508545518191568e+02	5.530797046463089828e+02	3.459722833184643969e+04
8.671000609640279119e-03	4.300462391698710235e+03	6.132456962669730274e+02	5.518907632190861250e+02	3.367547370105205482e+04
8.854757764207504128e-03	4.228682258400603132e+03	6.104413494882306850e+02	5.506984198586316097e+02	3.277833447004105255e+04
9.042409128148579806e-03	4.158080869884895037e+03	6.076376649774276757e+02	5.495025836241009074e+02	3.190504297608065826e+04
9.234037228136720080e-03	4.088651238754167935e+03	6.048348387971071816e+02	5.483033275767614896e+02	3.105508866161587139e+04
9.429726339762870002e-03	4.020402948178980296e+03	6.020335724113078868e+02	5.471008927477790849e+02	3.022835835771952770e+04
9.629562524599030379e-03	3.953282189123974149e+03	5.992330927913560572e+02	5.458949430520149235e+02	2.942364796851230130e+04
9.833633668047030499e-03	3.887263839860788266e+03	5.964332900147120426e+02	5.446853954362732111e+02	2.864028505111232153e+04
1.004202951798940403e-02	3.822341501584424350e+03	5.936345166598142669e+02	5.434723424472562101e+02	2.787788431282766396e+04
1.025484172425938229e-02	3.758524082931189241e+03	5.908375452108664376e+02	5.422560362687996758e+02	2.713628663394747855e+04
1.047216387894729824e-02	3.695760324724146813e+03	5.880415808107413795e+02	5.410361291125796015e+02	2.641446780875453987e+04
1.069409155756119272e-02	3.634027586233048623e+03	5.852465443658941240e+02	5.398125465003372483e+02	2.571180711493267881e+04
1.092072236105970547e-02	3.573320015152485666e+03	5.824527523295337232e+02	5.385853775611849414e+02	2.502798696468106937e+04
1.115215595877575537e-02	3.513645862447770469e+03	5.796607914281062222e+02	5.373548493114039957e+02	2.436278999654719519e+04
1.138849413224978825e-02	3.454956355671526580e+03	5.768698131707584480e+02	5.361205950575408679e+02	2.371530038150880864e+04
1.162984081999205582e-02	3.397231102970560187e+03	5.740797653293971052e+02	5.348825473936882418e+02	2.308499512433114432e+04
1.187630216319339981e-02	3.340464756022185611e+03	5.712910116553066473e+02	5.336408022239276079e+02	2.247153621603600186e+04
1.212798655240480798e-02	3.284664936856041550e+03	5.685043286023480960e+02	5.323956154289188589e+02	2.187484650836587753e+04
1.238500467520621366e-02	3.229785282252500565e+03	5.657188654608909246e+02	5.311466107827391170e+02	2.129402054172442877e+04
1.264746956488544717e-02	3.175807440728203346e+03	5.629345913151491914e+02	5.298937279085155296e+02	2.072860257291121161e+04
1.291549665014883955e-02	3.122726535122578298e+03	5.601518671472603046e+02	5.286370642770667700e+02	2.017832457839229755e+04
1.318920380588532899e-02	3.070549569089158922e+03	5.573713070642354523e+02	5.273768485695401296e+02	1.964305867836290417e+04
1.346871140500627631e-02	3.019232526852340015e+03	5.545919579907032357e+02	5.261126781891192650e+02	1.912201476230148182e+04
1.375414237138396570e-02	2.968758901605957362e+03	5.518138094480797236e+02	5.248444998886415078e+02	1.861476868416389698e+04
1.404562223391196511e-02	2.919124250679978104e+03	5.490372363806269504e+02	5.235724135327164959e+02	1.812110588387654207e+04
1.434327918171109106e-02	2.870334987125761927e+03	5.462629978707295777e+02	5.222966727883347176e+02	1.764089225510350661e+04
1.464724412050539583e-02	2.822349363178547719e+03	5.434902211126167231e+02	5.210168780666693920e+02	1.717344586971289027e+04
1.495765073019278586e-02	2.775152542668034584e+03	5.407189230204008936e+02	5.197329840233190907e+02	1.671841382261096805e+04
1.527463552363575450e-02	2.728740486392616731e+03	5.379494746079408287e+02	5.184450919029679881e+02	1.627555456899019373e+04
1.559833790669801906e-02	2.683119037708392625e+03	5.351824936455984698e+02	5.171534320010659940e+02	1.584477409262121000e+04
1.592890023955338338e-02	2.638248642526737967e+03	5.324169679132327246e+02	5.158575706765443556e+02	1.542540154885553784e+04
1.626646789929399317e-02	2.594115974666912280e+03	5.296529313966559585e+02	5.145574669627865205e+02	1.501714016181996703e+04
1.661118934386526108e-02	2.550717368063600588e+03	5.268907791001391843e+02	5.132532267285766920e+02	1.461979235729658467e+04
1.696321617735579643e-02	2.508058122044058564e+03	5.241312620382065006e+02	5.119451039055372235e+02	1.423328488490657401e+04
1.732270321667098503e-02	2.466100796601599541e+03	5.213734872293969147e+02	5.106326787373387219e+02	1.385702772787524009e+04
1.768980855961942850e-02	2.424833431044851750e+03	5.186175039507020301e+02	5.093159183480442493e+02	1.349073834835140769e+04
1.806469365444235767e-02	2.384252711646828629e+03	5.158636814145874041e+02	5.079949260627138869e+02	1.313426356438439325e+04
1.844752337081655841e-02	2.344363395460274205e+03	5.131125806890585181e+02	5.066699169800833147e+02	1.278749353941254412e+04
1.883846607236187159e-02	2.305130101039126203e+03	5.103632195453272402e+02	5.053404421992630091e+02	1.244990575930865270e+04
1.923769369068539445e-02	2.266542092774625871e+03	5.076156729565727233e+02	5.040064754504711004e+02	1.212125555282851928e+04
1.964538180099485026e-02	2.228596371820071454e+03	5.048703459542678047e+02	5.026681279172687482e+02	1.180138049252306701e+04
2.006170969931423895e-02	2.191297213710148299e+03	5.021279759964347136e+02	5.013256508066285733e+02	1.149022231899975486e+04
2.048686048133601528e-02	2.154611180046175377e+03	4.993876431745353557e+02	4.999786008453074828e+02	1.118729850151306528e+04
2.092102112294418406e-02	2.118528652664336278e+03	4.966494464620598706e+02	4.986269615819718410e+02	1.089241538608646442e+04
2.136438256244391209e-02	2.083046929703536534e+03	4.939136454070019226e+02	4.972708132073262277e+02	1.060540291587937099e+04
2.181713978453380873e-02	2.048169809790108957e+03	4.911808301042540279e+02	4.959103739771152846e+02	1.032619907880878964e+04
2.227949190605761978e-02	2.013865739214767927e+03	4.884500733428725425e+02	4.945451896450572917e+02	1.005437135474697243e+04
2.275164226357336353e-02	1.980126106811301952e+03	4.857214926654105511e+02	4.931752473555266079e+02	9.789735686786092629e+03
2.323379850277806913e-02	1.946948469849162166e+03	4.829954976109337395e+02	4.918006610623745587e+02	9.532185005836841810e+03
2.372617266982774559e-02	1.914336186539450182e+03	4.802728138151620669e+02	4.904216821302503035e+02	9.281635214602541964e+03
2.422898130459259780e-02	1.882259509346542018e+03	4.775525058900270210e+02	4.890378496842874938e+02	9.037711358052876676e+03
2.474244553588843265e-02	1.850710726037576933e+03	4.748345563049800830e+02	4.876491233736234108e+02	8.800235230121792483e+03
2.526679117872631872e-02	1.819687653640026838e+03	4.721192543724792472e+02	4.862555892440940397e+02	8.569096968963240215e+03
