# Data associated with arXiv:2208.14002
# 
# Scale-free gravitational potential, Phi(r), of a nfw0-9rhos8e6 dark matter distribution (see Eq. 2.8 and the surrounding discussion)
# 
# Published: 8/25/22, Jack Runburg and Kenny Kiriu, contact: runburg@hawaii.edu
# 
# 
# -----------------------------------------------------------------
# 
# 	 tilde r 		 | 		 tilde Phi
# 
# -----------------------------------------------------------------
1.000000000000000082e-05	1.368946620424845740e-06
1.016902569856036418e-05	1.394420332386403939e-06
1.034090836579813217e-05	1.420368064666615536e-06
1.051569629182590727e-05	1.446798637828209431e-06
1.069343858298338107e-05	1.473721036562959315e-06
1.087418517563349352e-05	1.501144412745557630e-06
1.105798685019213608e-05	1.529078088544358883e-06
1.124489524539464294e-05	1.557531559589945890e-06
1.143496287280373749e-05	1.586514498202695032e-06
1.162824313156251011e-05	1.616036756680360787e-06
1.182479032339672186e-05	1.646108370646820065e-06
1.202465966787094358e-05	1.676739562463157315e-06
1.222790731790219642e-05	1.707940744702157469e-06
1.243459037553620304e-05	1.739722523687499067e-06
1.264476690798990365e-05	1.772095703098732830e-06
1.285849596396550032e-05	1.805071287643385487e-06
1.307583759024001738e-05	1.838660486797344185e-06
1.329685284853523648e-05	1.872874718614826782e-06
1.352160383267306994e-05	1.907725613609274629e-06
1.375015368602047702e-05	1.943225018706384183e-06
1.398256661922970337e-05	1.979385001270750868e-06
1.421890792827791775e-05	2.016217853207355073e-06
1.445924401281218556e-05	2.053736095139414941e-06
1.470364239480425140e-05	2.091952480663925638e-06
1.495217173752060936e-05	2.130880000686362318e-06
1.520490186481353606e-05	2.170531887836073145e-06
1.546190378073772831e-05	2.210921620963746836e-06
1.572324968949899453e-05	2.252062929722620849e-06
1.598901301573965207e-05	2.293969799234843914e-06
1.625926842516730133e-05	2.336656474844725929e-06
1.653409184553174079e-05	2.380137466960331700e-06
1.681356048795696318e-05	2.424427555985224397e-06
1.709775286863338809e-05	2.469541797341904138e-06
1.738674883087671066e-05	2.515495526588690826e-06
1.768062956756000055e-05	2.562304364631862190e-06
1.797947764392438726e-05	2.609984223034659366e-06
1.828337702077590442e-05	2.658551309425151806e-06
1.859241307807381921e-05	2.708022133004608157e-06
1.890667263891824960e-05	2.758413510158428423e-06
1.922624399394281931e-05	2.809742570171390358e-06
1.955121692611963820e-05	2.862026761049215436e-06
1.988168273598394005e-05	2.915283855448494467e-06
2.021773426728446277e-05	2.969531956716821527e-06
2.055946593306806188e-05	3.024789505045397763e-06
2.090697374220454717e-05	3.081075283735976599e-06
2.126035532636048084e-05	3.138408425584487734e-06
2.161970996742848953e-05	3.196808419383341045e-06
2.198513862542019826e-05	3.256295116544683822e-06
2.235674396683105304e-05	3.316888737846930531e-06
2.273463039348393747e-05	3.378609880306682663e-06
2.311890407186101566e-05	3.441479524178590382e-06
2.350967296293065580e-05	3.505519040085303601e-06
2.390704685247916156e-05	3.570750196280157357e-06
2.431113738195477895e-05	3.637195166044882290e-06
2.472205807983296721e-05	3.704876535224906726e-06
2.513992439351238667e-05	3.773817309904912170e-06
2.556485372174920653e-05	3.844040924227028301e-06
2.599696544764047972e-05	3.915571248354588462e-06
2.643638097216418787e-05	3.988432596583875779e-06
2.688322374828698802e-05	4.062649735606880860e-06
2.733761931564792142e-05	4.138247892927655361e-06
2.779969533582839453e-05	4.215252765435217149e-06
2.826958162821882354e-05	4.293690528135985652e-06
2.874741020649071774e-05	4.373587843048519729e-06
2.923331531568612113e-05	4.454971868263825069e-06
2.972743346993304866e-05	4.537870267174033115e-06
3.022990349079926684e-05	4.622311217872869269e-06
3.074086654629380722e-05	4.708323422730867390e-06
3.126046619052763072e-05	4.795936118148657720e-06
3.178884840404535552e-05	4.885179084491777356e-06
3.232616163483768439e-05	4.976082656210075467e-06
3.287255684004812447e-05	5.068677732145509640e-06
3.342818752838356790e-05	5.162995786031464007e-06
3.399320980324275641e-05	5.259068877187506669e-06
3.456778240657304527e-05	5.356929661412934736e-06
3.515206676346841592e-05	5.456611402082903402e-06
3.574622702752206616e-05	5.558147981451045546e-06
3.635043012694450139e-05	5.661573912162106385e-06
3.696484581146223093e-05	5.766924348978865601e-06
3.758964670000808795e-05	5.874235100726957845e-06
3.822500832921870388e-05	5.983542642462013134e-06
3.887110920275097572e-05	6.094884127862933868e-06
3.952813084143210176e-05	6.208297401855641893e-06
4.019625783425803943e-05	6.323821013471709484e-06
4.087567789025284005e-05	6.441494228945909534e-06
4.156658189120576708e-05	6.561357045057541820e-06
4.226916394529853092e-05	6.683450202719624826e-06
4.298362144164019741e-05	6.807815200820992125e-06
4.371015510572303796e-05	6.934494310325643679e-06
4.444896905581571312e-05	7.063530588634267380e-06
4.520027086031053377e-05	7.194967894212961384e-06
4.596427159603870473e-05	7.328850901493732881e-06
4.674118590757267352e-05	7.465225116052315465e-06
4.753123206752940771e-05	7.604136890067940040e-06
4.833463203789430644e-05	7.745633438070804720e-06
4.915161153238073493e-05	7.889762852982182736e-06
4.998240007984356624e-05	8.036574122452746940e-06
5.082723108876559525e-05	8.186117145504879180e-06
5.168634191283236288e-05	8.338442749484090797e-06
5.255997391761710167e-05	8.493602707325946809e-06
5.344837254839108326e-05	8.651649755143686919e-06
5.435178739908172257e-05	8.812637610143126516e-06
5.527047228239525742e-05	8.976620988870439921e-06
5.620468530112457639e-05	9.143655625799175247e-06
5.715468892066349253e-05	9.313798292263024726e-06
5.812075004274504757e-05	9.487106815740272943e-06
5.910314008042789533e-05	9.663640099497053317e-06
6.010213503434844385e-05	9.843458142595475871e-06
6.111801557026345553e-05	1.002662206027397687e-05
6.215106709790228898e-05	1.021319410470634469e-05
6.320157985115178797e-05	1.040323768614661664e-05
6.426984896959787321e-05	1.059681739446726500e-05
6.535617458144342038e-05	1.079399902109739953e-05
6.646086188782971240e-05	1.099484958136912121e-05
6.758422124858115099e-05	1.119943733727888824e-05
6.872656826940111863e-05	1.140783182067228506e-05
6.988822389054047174e-05	1.162010385685951603e-05
7.106951447696465861e-05	1.183632558866980288e-05
7.227077191004629639e-05	1.205657050095313064e-05
7.349233368080552791e-05	1.228091344553699261e-05
7.473454298472863809e-05	1.250943066664739585e-05
7.599774881818697982e-05	1.274219982680187228e-05
7.728230607648789517e-05	1.297930003318412970e-05
7.858857565358148443e-05	1.322081186450858437e-05
7.991692454345255051e-05	1.346681739838411946e-05
8.126772594322802224e-05	1.371740023918667152e-05
8.264135935802465773e-05	1.397264554644931339e-05
8.403821070757165439e-05	1.423264006378040286e-05
8.545867243463269578e-05	1.449747214831858421e-05
8.690314361526321394e-05	1.476723180073559135e-05
8.837203007092955202e-05	1.504201069579623604e-05
8.986574448252320402e-05	1.532190221348620632e-05
9.138470650630395851e-05	1.560700147071857137e-05
9.292934289180014931e-05	1.589740535362890489e-05
9.450008760170456993e-05	1.619321255047094632e-05
9.609738193379394305e-05	1.649452358512289147e-05
9.772167464491231779e-05	1.680144085121676573e-05
9.937342207704681467e-05	1.711406864690121865e-05
1.010530882855375953e-04	1.743251321025074697e-05
1.027611451694522251e-04	1.775688275533219827e-05
1.044980726041651943e-04	1.808728750894153856e-05
1.062643585761784858e-04	1.842383974802306755e-05
1.080604993202192510e-04	1.876665383778336357e-05
1.098869994586575572e-04	1.911584627051373091e-05
1.117443721432778697e-04	1.947153570513320109e-05
1.136331391994486811e-04	1.983384300746633864e-05
1.155538312727281931e-04	2.020289129126897362e-05
1.175069879779481330e-04	2.057880596001591812e-05
1.194931580508180820e-04	2.096171474946484619e-05
1.215128995020904455e-04	2.135174777101030651e-05
1.235667797743341897e-04	2.174903755584338860e-05
1.256553759013554958e-04	2.215371909993086645e-05
1.277792746703147969e-04	2.256592990982991630e-05
1.299390727865835948e-04	2.298581004935346234e-05
1.321353770413874452e-04	2.341350218710192512e-05
1.343688044822834680e-04	2.384915164487770719e-05
1.366399825865173903e-04	2.429290644699813668e-05
1.389495494373137348e-04	2.474491737052457528e-05
1.412981539031428761e-04	2.520533799642342507e-05
1.436864558200198782e-04	2.567432476167727263e-05
1.461151261768842277e-04	2.615203701236327685e-05
1.485848473041125864e-04	2.663863705771681207e-05
1.510963130652191798e-04	2.713429022519888247e-05
1.536502290517936125e-04	2.763916491658508526e-05
1.562473127817378576e-04	2.815343266509645831e-05
1.588882939008491742e-04	2.867726819358972211e-05
1.615739143878149021e-04	2.921084947382836277e-05
1.643049287626683534e-04	2.975435778685289279e-05
1.670821042987704773e-04	3.030797778447190245e-05
1.699062212383743503e-04	3.087189755189409843e-05
1.727780730118311508e-04	3.144630867152206849e-05
1.756984664605053779e-04	3.203140628793055050e-05
1.786682220634525510e-04	3.262738917404921967e-05
1.816881741679340619e-04	3.323445979857440533e-05
1.847591712238235014e-04	3.385282439463055068e-05
1.878820760219775598e-04	3.448269302970584041e-05
1.910577659366365815e-04	3.512427967688521178e-05
1.942871331719188508e-04	3.577780228740398498e-05
1.975710850124866975e-04	3.644348286454830965e-05
2.009105440784431595e-04	3.712154753892490461e-05
2.043064485845435532e-04	3.781222664512803606e-05
2.077597526037827484e-04	3.851575479982717999e-05
2.112714263354412516e-04	3.923237098130331435e-05
2.148424563776607336e-04	3.996231861045985480e-05
2.184738460046266035e-04	4.070584563333552904e-05
2.221666154484372088e-04	4.146320460514741951e-05
2.259218021857336319e-04	4.223465277589132701e-05
2.297404612291798821e-04	4.302045217753001612e-05
2.336236654238643619e-04	4.382086971279670505e-05
2.375725057487147664e-04	4.463617724564510622e-05
2.415880916230062926e-04	4.546665169337571119e-05
2.456715512180506823e-04	4.631257512046941610e-05
2.498240317741551374e-04	4.717423483416032269e-05
2.540466999229345113e-04	4.805192348177879066e-05
2.583407420150777146e-04	4.894593914989932081e-05
2.627073644536481322e-04	4.985658546532429735e-05
2.671477940330213769e-04	5.078417169793925285e-05
2.716632782835508839e-04	5.172901286547336111e-05
2.762550858220584886e-04	5.269142984020027233e-05
2.809245067082517420e-04	5.367174945761582169e-05
2.856728528071605542e-04	5.467030462712742066e-05
2.905014581577071149e-04	5.568743444479489450e-05
2.954116793474984839e-04	5.672348430815746701e-05
3.004048958939589458e-04	5.777880603318786851e-05
3.054825106319022541e-04	5.885375797341141281e-05
3.106459501076553839e-04	5.994870514123036830e-05
3.158966649798455200e-04	6.106401933149454534e-05
3.212361304269563162e-04	6.220007924735801875e-05
3.266658465617811426e-04	6.335727062846708830e-05
3.321873388528732334e-04	6.453598638151843386e-05
3.378021585531251671e-04	6.573662671323485165e-05
3.435118831355896260e-04	6.695959926580040151e-05
3.493181167366675791e-04	6.820531925480166039e-05
3.552224906067888996e-04	6.947420960972105217e-05
3.612266635687054364e-04	7.076670111702769558e-05
3.673323224835388411e-04	7.208323256591678177e-05
3.735411827246973185e-04	7.342425089674223205e-05
3.798549886598084251e-04	7.479021135219524681e-05
3.862755141407951480e-04	7.618157763127780552e-05
3.928045630022363724e-04	7.759882204612256348e-05
3.994439695681523583e-04	7.904242568171232519e-05
4.061955991673505371e-04	8.051287855855021472e-05
4.130613486574917070e-04	8.201067979833833084e-05
4.200431469580040238e-04	8.353633779271596644e-05
4.271429555920115370e-04	8.509037037511691509e-05
4.343627692374198417e-04	8.667330499580117237e-05
4.417046162873167637e-04	8.828567890012018892e-05
4.491705594198478857e-04	8.992803931007496742e-05
4.567626961777168084e-04	9.160094360922571316e-05
4.644831595574927248e-04	9.330495953101855099e-05
4.723341186088662533e-04	9.504066535058652745e-05
4.803177790440425624e-04	9.680865008009321645e-05
4.884363838574312710e-04	9.860951366768125651e-05
4.966922139558113680e-04	1.004438672000925928e-04
5.050875887991499369e-04	1.023123331090284173e-04
5.136248670522445235e-04	1.042155453813144411e-04
5.223064472473935762e-04	1.061541497729465546e-04
5.311347684582509721e-04	1.081288040270806511e-04
5.401123109850867847e-04	1.101401780960462241e-04
5.492415970516181150e-04	1.121889543674510243e-04
5.585251915136241153e-04	1.142758278944555183e-04
5.679657025795404723e-04	1.164015066302926489e-04
5.775657825432239500e-04	1.185667116671076666e-04
5.873281285291183634e-04	1.207721774792026279e-04
5.972554832499969713e-04	1.230186521707583359e-04
6.073506357775315233e-04	1.253068977281241749e-04
6.176164223258701069e-04	1.276376902767504705e-04
6.280557270484683893e-04	1.300118203428548972e-04
6.386714828483902292e-04	1.324300931199062672e-04
6.494666722022935214e-04	1.348933287400115285e-04
6.604443279983617009e-04	1.374023625503019105e-04
6.716075343883770371e-04	1.399580453943996420e-04
6.829594276542177208e-04	1.425612438990682927e-04
6.945031970889825731e-04	1.452128407661317151e-04
7.062420858930204982e-04	1.479137350697638245e-04
7.181793920851009278e-04	1.506648425592438162e-04
7.303184694289851413e-04	1.534670959672772153e-04
7.426627283756636558e-04	1.563214453239841328e-04
7.552156370215079703e-04	1.592288582766551513e-04
7.679807220826359018e-04	1.621903204153851328e-04
7.809615698857278474e-04	1.652068356046844486e-04
7.941618273756021005e-04	1.682794263211820167e-04
8.075852031398165869e-04	1.714091339975274818e-04
8.212354684505887787e-04	1.745970193726057015e-04
8.351164583243314002e-04	1.778441628481787625e-04
8.492320725990840828e-04	1.811516648520681758e-04
8.635862770301777234e-04	1.845206462080035590e-04
8.781831044043956558e-04	1.879522485122478274e-04
8.930266556729828109e-04	1.914476345171306764e-04
9.081211011037989590e-04	1.950079885216098627e-04
9.234706814529467173e-04	1.986345167689888434e-04
9.390797091562086895e-04	2.023284478519216903e-04
9.549525695406079406e-04	2.060910331248307211e-04
9.710937220564705170e-04	2.099235471238807492e-04
9.875077015302894702e-04	2.138272879946349870e-04
1.004199119438780371e-03	2.178035779275392953e-04
1.021172665204465608e-03	2.218537636013712805e-04
1.038433107513160114e-03	2.259792166347996572e-04
1.055985295653722377e-03	2.301813340461980216e-04
1.073834160880457900e-03	2.344615387218642276e-04
1.091984717798539194e-03	2.388212798927917058e-04
1.110442065772854507e-03	2.432620336201510726e-04
1.129211390360662605e-03	2.477853032896357968e-04
1.148297964768467102e-03	2.523926201148308959e-04
1.167707151333511727e-03	2.570855436497664222e-04
1.187444403030319794e-03	2.618656623108204053e-04
1.207515265002700490e-03	2.667345939081404113e-04
1.227925376121640280e-03	2.716939861867483552e-04
1.248680470569537605e-03	2.767455173775084103e-04
1.269786379451208914e-03	2.818908967581287730e-04
1.291249032432127903e-03	2.871318652243805172e-04
1.313074459404352896e-03	2.924701958717117775e-04
1.335268792180613557e-03	2.979076945874440719e-04
1.357838266217031810e-03	3.034462006537413654e-04
1.380789222364966172e-03	3.090875873615398753e-04
1.404128108652453718e-03	3.148337626356334496e-04
1.427861482095777682e-03	3.206866696711176980e-04
1.451996010541646868e-03	3.266482875813873812e-04
1.476538474540514635e-03	3.327206320578969599e-04
1.501495769251562883e-03	3.389057560418909528e-04
1.526874906379880551e-03	3.452057504083147640e-04
1.552683016146397385e-03	3.516227446621243377e-04
1.578927349291094897e-03	3.581589076472086624e-04
1.605615279110095620e-03	3.648164482681542161e-04
1.632754303527175332e-03	3.715976162250727460e-04
1.660352047200289172e-03	3.785047027617233196e-04
1.688416263663707062e-03	3.855400414271650008e-04
1.716954837506350865e-03	3.927060088511745580e-04
1.745975786586963620e-03	4.000050255336758576e-04
1.775487264286699802e-03	4.074395566484184943e-04
1.805497561799810540e-03	4.150121128611643467e-04
1.836015110463037458e-03	4.227252511626319680e-04
1.867048484124379315e-03	4.305815757164543575e-04
1.898606401551900620e-03	4.385837387224181282e-04
1.930697728883249645e-03	4.467344412952442795e-04
1.963331482116591892e-03	4.550364343591887790e-04
1.996516829643624896e-03	4.634925195587279363e-04
2.030263094825430960e-03	4.721055501856208651e-04
2.064579758611852570e-03	4.808784321226224740e-04
2.099476462205150749e-03	4.898141248041411799e-04
2.134963009768679927e-03	4.989156421941344077e-04
2.171049371181348660e-03	5.081860537815376978e-04
2.207745684838647703e-03	5.176284855935350121e-04
2.245062260500998302e-03	5.272461212269690962e-04
2.283009582190270292e-03	5.370422028982145589e-04
2.321598311135244109e-03	5.470200325118252131e-04
2.360839288766866315e-03	5.571829727482796374e-04
2.400743539764126078e-03	5.675344481711514129e-04
2.441322275151419988e-03	5.780779463540384024e-04
2.482586895448264750e-03	5.888170190275874996e-04
2.524548993872262424e-03	5.997552832469602762e-04
2.567220359596177753e-03	6.108964225800811573e-04
2.610612981060093842e-03	6.222441883170318775e-04
2.654739049339540410e-03	6.338024007009433877e-04
2.699610961570552640e-03	6.455749501807529767e-04
2.745241324432623389e-03	6.575657986861956680e-04
2.791642957690524101e-03	6.697789809254063283e-04
2.838828897796003177e-03	6.822186057055162943e-04
2.886812401550338004e-03	6.948888572766222542e-04
2.935606949828818354e-03	7.077939966995351519e-04
2.985226251368169013e-03	7.209383632376917305e-04
3.035684246617996723e-03	7.343263757736500329e-04
3.086995111657330013e-03	7.479625342505609106e-04
3.139173262177360861e-03	7.618514212852777346e-04
3.192233357531519197e-03	7.759977030969093109e-04
3.246190304853968818e-03	7.904061318435825004e-04
3.301059263247754609e-03	8.050815466403369713e-04
3.356855648043719550e-03	8.200288752598001735e-04
3.413595135131412741e-03	8.352531357325414111e-04
3.471293665363201029e-03	8.507594379754576360e-04
3.529967449032819348e-03	8.665529854486483897e-04
3.589632970429635240e-03	8.826390768412532535e-04
3.650306992469857896e-03	8.990231077867087998e-04
3.712006561406061729e-03	9.157105726079269210e-04
3.774749011616297320e-03	9.327070660928620449e-04
3.838551970474150202e-03	9.500182853009686785e-04
3.903433363301120080e-03	9.676500314010459550e-04
3.969411418402700453e-03	9.856082115409746380e-04
4.036504672189604979e-03	1.003898840749865590e-03
4.104731974385511864e-03	1.022528043873122128e-03
4.174112493322873658e-03	1.041502057540964754e-03
4.244665721328222743e-03	1.060827232170934902e-03
4.316411480198500787e-03	1.080510034004923681e-03
4.389369926769958255e-03	1.100557047181268929e-03
4.463561558581177410e-03	1.120974975842478714e-03
4.539007219631814756e-03	1.141770646279135527e-03
4.615728106238700494e-03	1.162951009110557753e-03
4.693745772990876204e-03	1.184523141502774601e-03
4.773082138805334954e-03	1.206494249424415596e-03
4.853759493085097083e-03	1.228871669941093356e-03
4.935800501981372872e-03	1.251662873548868614e-03
5.019228214761578891e-03	1.274875466547409613e-03
5.104066070284974874e-03	1.298517193453445004e-03
5.190337903587798063e-03	1.322595939455137792e-03
5.278067952579629761e-03	1.347119732907979452e-03
5.367280864853020243e-03	1.372096747872861896e-03
5.458001704608171807e-03	1.397535306696941161e-03
5.550255959694683563e-03	1.423443882637944434e-03
5.644069548772311269e-03	1.449831102532564853e-03
5.739468828592763153e-03	1.476705749509604152e-03
5.836480601404602127e-03	1.504076765748526678e-03
5.935132122483251921e-03	1.531953255284076824e-03
6.035451107788337120e-03	1.560344486857658756e-03
6.137465741750428375e-03	1.589259896958824907e-03
6.241204685189401941e-03	1.618709092221374494e-03
6.346697083366644419e-03	1.648701853218088442e-03
6.453972574173352621e-03	1.679248136990073303e-03
6.563061296457267831e-03	1.710358080267341532e-03
6.673993898490092683e-03	1.742042002615204130e-03
6.786801546578089504e-03	1.774310409632329872e-03
6.901515933818189001e-03	1.807173996201168024e-03
