# Data associated with arXiv:2208.14002
# 
# Scale-free velocity distribution, f(E), of a nfw1-1rhos8e6 dark matter distribution (see Eq. 2.7 and the surrounding discussion)
# 
# Published: 8/25/22, Jack Runburg and Kenny Kiriu, contact: runburg@hawaii.edu
# 
# 
# -----------------------------------------------------------------
# 
# 	 tilde E 		 | 		 tilde f
# 
# -----------------------------------------------------------------
1.849274537751722771e-05	8.928068007738531113e+09
1.877382464545795606e-05	8.573431791050437927e+09
1.905917612591950095e-05	8.223518573695134163e+09
1.934886475260902980e-05	7.880449711398978233e+09
1.964295644613231543e-05	7.550798661092067719e+09
1.994151812899176896e-05	7.230263817451297760e+09
2.024461774081300221e-05	6.923336754458505630e+09
2.055232425380217612e-05	6.629440492951280594e+09
2.086470768843869556e-05	6.348018534039563179e+09
2.118183912940610334e-05	6.078540871752868652e+09
2.150379074176490720e-05	5.820502379749312401e+09
2.183063578737164942e-05	5.573419610240866661e+09
2.216244864154684821e-05	5.336826446157142639e+09
2.249930480999671030e-05	5.110274806439018250e+09
2.284128094599151472e-05	4.893340309816843033e+09
2.318845486780549261e-05	4.685615734180855751e+09
2.354090557642129312e-05	4.486709522290260315e+09
2.389871327350350747e-05	4.296245516088606834e+09
2.426195937964565605e-05	4.113866885335019588e+09
2.463072655289379604e-05	3.939231895683985233e+09
2.500509870755229276e-05	3.772009754427139759e+09
2.538516103327455986e-05	3.611885483381430626e+09
2.577100001444462336e-05	3.458559060041254044e+09
2.616270344985259917e-05	3.311741494875413418e+09
2.656036047266916665e-05	3.171156953163719654e+09
2.696406157072403872e-05	3.036541247678963661e+09
2.737389860709172213e-05	2.907639041105060577e+09
2.778996484099088311e-05	2.784208463133582592e+09
2.821235494900036785e-05	2.666018655157571316e+09
2.864116504659855916e-05	2.552846251113634109e+09
2.907649271002885101e-05	2.444477406850664139e+09
2.951843699849843051e-05	2.340709195045632839e+09
2.996709847671354877e-05	2.241346790015304089e+09
3.042257923775721682e-05	2.146202546861448050e+09
3.088498292631518098e-05	2.055097016290511847e+09
3.135441476225356609e-05	1.967858861067954302e+09
3.183098156455608759e-05	1.884324490525040150e+09
3.231479177562358363e-05	1.804336484283458948e+09
3.280595548594380563e-05	1.727743740231287241e+09
3.330458445913535000e-05	1.654402501380258560e+09
3.381079215737200941e-05	1.584175088483022690e+09
3.432469376719402151e-05	1.516929041716765881e+09
3.484640622571045718e-05	1.452537513324710846e+09
3.537604824720071714e-05	1.390879419623497009e+09
3.591374035011905364e-05	1.331839158435117245e+09
3.645960488451030284e-05	1.275305364593705893e+09
3.701376605984150374e-05	1.221171278858819723e+09
3.757634997325617963e-05	1.169335366144709110e+09
3.814748463825858710e-05	1.119700097320942163e+09
3.872730001383262166e-05	1.072171921697293997e+09
3.931592803400414855e-05	1.026661477741921067e+09
3.991350263785135291e-05	9.830830111257175207e+08
4.052015979997183729e-05	9.413545012798407078e+08
4.113603756141199586e-05	9.013974941515816450e+08
4.176127606106602426e-05	8.631367155167306662e+08
4.239601756755273748e-05	8.265002234714264870e+08
4.304040651157531837e-05	7.914190915477133989e+08
4.369458951877389032e-05	7.578271885247846842e+08
4.435871544307583357e-05	7.256612472184207439e+08
4.503293540055386054e-05	6.948607829758757353e+08
4.571740280379740665e-05	6.653679295915960073e+08
4.641227339680629484e-05	6.371271344859658480e+08
4.711770529041496808e-05	6.100851558252744675e+08
4.783385899825367291e-05	5.841911124623970985e+08
4.856089747325705670e-05	5.593963400876560211e+08
4.929898614472592487e-05	5.356541588030453920e+08
5.004829295595313553e-05	5.129198256853551269e+08
5.080898840242015050e-05	4.911505886967471838e+08
5.158124557057345823e-05	4.703054980547022820e+08
5.236524017719108729e-05	4.503452842663030624e+08
5.316115060934530913e-05	4.312323789874910116e+08
5.396915796497394420e-05	4.129308302270442843e+08
5.478944609406604467e-05	3.954061867411213517e+08
5.562220164047473403e-05	3.786254614708420038e+08
5.646761408436381700e-05	3.625570899489640594e+08
5.732587578529898826e-05	3.471708107850109339e+08
5.819718202599446859e-05	3.324376672777338624e+08
5.908173105672252215e-05	3.183299397549431324e+08
5.997972414039851301e-05	3.048210634408818483e+08
6.089136559834942928e-05	2.918856262606551051e+08
6.181686285677861397e-05	2.794992907149823308e+08
6.275642649393520028e-05	2.676387331772876680e+08
6.371027028799935066e-05	2.562816177262011468e+08
6.467861126569609328e-05	2.454065923202331960e+08
6.566166975164534534e-05	2.349932012022601366e+08
6.665966941846311231e-05	2.250218209961436987e+08
6.767283733762147961e-05	2.154736922231116891e+08
6.870140403108254842e-05	2.063308568893508911e+08
6.974560352371509775e-05	1.975761068220902681e+08
7.080567339650698313e-05	1.891929590907038152e+08
7.188185484058666182e-05	1.811656346130796671e+08
7.297439271206289759e-05	1.734790379853957593e+08
7.408353558769904378e-05	1.661187025895744860e+08
7.520953582143044254e-05	1.590707724226758480e+08
7.635264960174165062e-05	1.523219889177374840e+08
7.751313700991343928e-05	1.458596520259008706e+08
7.869126207915381197e-05	1.396715995564121902e+08
7.988729285462809664e-05	1.337461904729289263e+08
8.110150145439800609e-05	1.280722710418024063e+08
8.233416413128804353e-05	1.226391646833785921e+08
8.358556133568852326e-05	1.174366539450512528e+08
8.485597777931404458e-05	1.124549451341291666e+08
8.614570249992820658e-05	1.076846634495109469e+08
8.745502892705054243e-05	1.031168382058165818e+08
8.878425494866226133e-05	9.874287253399948776e+07
9.013368297892208740e-05	9.455453541215890646e+07
9.150362002691204998e-05	9.054394859241573513e+07
9.289437776642421650e-05	8.670356583073772490e+07
9.430627260680869651e-05	8.302616187383830547e+07
9.573962576489514155e-05	7.950481817986102402e+07
9.719476333800562988e-05	7.613290941041597724e+07
9.867201637807715094e-05	7.290409301436458528e+07
1.001717209669060764e-04	6.981229406795330346e+07
1.016942182925371961e-04	6.685169594610963017e+07
1.032398547268089886e-04	6.401673023751845211e+07
1.048089819040779196e-04	6.130206383821684867e+07
1.064019568011354726e-04	5.870258992891332507e+07
1.080191418183375066e-04	5.621341858815252781e+07
1.096609048619663380e-04	5.382986806413077563e+07
1.113276194278392214e-04	5.154745490649155527e+07
1.130196646861886137e-04	4.936188562977886200e+07
1.147374255678263767e-04	4.726905000670613348e+07
1.164812928516183199e-04	4.526501171114803851e+07
1.182516632532833395e-04	4.334600158436074108e+07
1.200489395155396799e-04	4.150841076421133429e+07
1.218735304996201884e-04	3.974878271904344112e+07
1.237258512781721522e-04	3.806380855807013810e+07
1.256063232295707435e-04	3.645032020589994639e+07
1.275153741336575413e-04	3.490528304867418110e+07
1.294534382689353530e-04	3.342579164623722434e+07
1.314209565112343795e-04	3.200906416252677143e+07
1.334183764338742813e-04	3.065243648578730971e+07
1.354461524093477601e-04	2.935335781208259240e+07
1.375047457125420263e-04	2.810938605853224918e+07
1.395946246255291075e-04	2.691818242410820723e+07
1.417162645439410979e-04	2.577750680082601309e+07
1.438701480849622781e-04	2.468521481660187989e+07
1.460567651969536644e-04	2.363925342308281362e+07
1.482766132707441932e-04	2.263765642250354961e+07
1.505301972526048584e-04	2.167854087419454008e+07
1.528180297589374606e-04	2.076010374931244180e+07
1.551406311927018740e-04	1.988061888354615122e+07
1.574985298616055215e-04	1.903843329828982428e+07
1.598922620980878552e-04	1.823196403787949309e+07
1.623223723811195198e-04	1.745969550807802752e+07
1.647894134598493763e-04	1.672017650718620047e+07
1.672939464791245933e-04	1.601201718946086988e+07
1.698365411069127000e-04	1.533388672511903755e+07
1.724177756636547114e-04	1.468451104066670686e+07
1.750382372535762147e-04	1.406266995014261082e+07
1.776985218979914357e-04	1.346719506072370335e+07
1.803992346706226205e-04	1.289696775958796591e+07
1.831409898349722453e-04	1.235091664753982984e+07
1.859244109837747806e-04	1.182801593536928669e+07
1.887501311805608059e-04	1.132728348395943269e+07
1.916187931033660563e-04	1.084777865514079109e+07
1.945310491906146737e-04	1.038860081845919229e+07
1.974875617892149894e-04	9.948887604065101594e+06
2.004890033048949431e-04	9.527813171297321096e+06
2.035360563548154107e-04	9.124586786911932752e+06
2.066294139224939127e-04	8.738451291039189324e+06
2.097697795150735604e-04	8.368681618590162136e+06
2.129578673229742651e-04	8.014583503327534534e+06
2.161944023819572732e-04	7.675492165034641512e+06
2.194801207376484550e-04	7.350770985234658234e+06
2.228157696125451206e-04	7.039810397284075618e+06
2.262021075755569967e-04	6.742026716517641209e+06
2.296399047141075460e-04	6.456860997987030074e+06
2.331299428088430645e-04	6.183778049699495547e+06
2.366730155109844126e-04	5.922265387571811676e+06
2.402699285223603039e-04	5.671832273482739925e+06
2.439214997781689344e-04	5.432008798255283386e+06
2.476285596324980659e-04	5.202344983215677552e+06
2.513919510466569606e-04	4.982409944933812134e+06
2.552125297803545093e-04	4.771791113214078359e+06
2.590911645857680592e-04	4.570093392215979286e+06
2.630287374045498601e-04	4.376938473449139856e+06
2.670261435678077762e-04	4.191964101723021828e+06
2.710842919991167214e-04	4.014823378004250582e+06
2.752041054205910152e-04	3.845184146704850718e+06
2.793865205620809202e-04	3.682728330552222673e+06
2.836324883735236125e-04	3.527151346965444740e+06
2.879429742405088658e-04	3.378161542620928027e+06
2.923189582031003771e-04	3.235479645285326522e+06
2.967614351779645056e-04	3.098838226441677194e+06
3.012714151838566780e-04	2.967981208266819362e+06
3.058499235705101817e-04	2.842663368676202837e+06
3.104980012509905027e-04	2.722649894859450869e+06
3.152167049375511482e-04	2.607715942715269513e+06
3.200071073810583375e-04	2.497646193556797225e+06
3.248702976140280924e-04	2.392234482195570599e+06
3.298073811973344354e-04	2.291283371270505246e+06
3.348194804706443165e-04	2.194603812770879362e+06
3.399077348066283826e-04	2.102014774536466692e+06
3.450733008690170319e-04	2.013342897371803876e+06
3.503173528745443096e-04	1.928422183354839450e+06
3.556410828588493583e-04	1.847093677708329866e+06
3.610457009463893612e-04	1.769205162290780572e+06
3.665324356244239372e-04	1.694610876427136129e+06
3.721025340211365248e-04	1.623171245449811453e+06
3.777572621879447443e-04	1.554752613646568498e+06
3.834979053860775294e-04	1.489226992571939016e+06
3.893257683774658650e-04	1.426471823876053095e+06
3.952421757200249783e-04	1.366369743809004314e+06
4.012484720673862573e-04	1.308808371301118052e+06
4.073460224731482331e-04	1.253680087067890679e+06
4.135362126997147131e-04	1.200881836570552317e+06
4.198204495317822433e-04	1.150314937539477600e+06
4.262001610945597352e-04	1.101884889683955116e+06
4.326767971767734883e-04	1.055501200396553380e+06
4.392518295585445647e-04	1.011077214601745480e+06
4.459267523442004199e-04	9.685299524596474366e+05
4.527030823001002664e-04	9.277799515416525537e+05
4.595823591975483789e-04	8.887511183632100001e+05
4.665661461608638667e-04	8.513705851369071752e+05
4.736560300206985800e-04	8.155685744991877582e+05
4.808536216726633792e-04	7.812782679124448914e+05
4.881605564413568198e-04	7.484356716607806738e+05
4.955784944498667832e-04	7.169795189434147906e+05
5.031091209948319485e-04	6.868511286569485674e+05
5.107541469271443700e-04	6.579943106040963903e+05
5.185153090383702980e-04	6.303552565457812743e+05
5.263943704529916489e-04	6.038824387825289741e+05
5.343931210265315474e-04	5.785265126794002717e+05
5.425133777496696534e-04	5.542402255635067122e+05
5.507569851584270685e-04	5.309783266907505458e+05
5.591258157505122218e-04	5.086974834814509377e+05
5.676217704079244454e-04	4.873561989673621720e+05
5.762467788258917841e-04	4.669147353396294056e+05
5.850027999482654457e-04	4.473350376640660688e+05
5.938918224094330177e-04	4.285806636400813004e+05
6.029158649828724207e-04	4.106167152054879116e+05
6.120769770364331216e-04	3.934097722067469149e+05
6.213772389944451080e-04	3.769278306250788155e+05
6.308187628067618785e-04	3.611402421583363321e+05
6.404036924248263530e-04	3.460176565737141646e+05
6.501342042848877456e-04	3.315319666671152809e+05
6.600125077984413937e-04	3.176562560275179567e+05
6.700408458500337885e-04	3.043647480092287296e+05
6.802214953025114124e-04	2.916327573697761400e+05
6.905567675098401269e-04	2.794366445139960852e+05
7.010490088376053735e-04	2.677537708194840816e+05
7.117006011912910919e-04	2.565624561173320399e+05
7.225139625524814452e-04	2.458419380501455453e+05
7.334915475230610301e-04	2.355723334199332166e+05
7.446358478775766355e-04	2.257346008252593456e+05
7.559493931238376371e-04	2.163105048896120570e+05
7.674347510719056221e-04	2.072825817281099153e+05
7.790945284115871963e-04	1.986341072208625556e+05
7.909313712985418599e-04	1.903490646534723346e+05
8.029479659491589117e-04	1.824121153474698076e+05
8.151470392442968383e-04	1.748085695315325866e+05
8.275313593420511801e-04	1.675243591898240848e+05
8.401037362996476932e-04	1.605460114484920632e+05
8.528670227046222449e-04	1.538606234197336307e+05
8.658241143154063804e-04	1.474558381387327390e+05
8.789779507114608070e-04	1.413198213226825756e+05
8.923315159531007785e-04	1.354412389881250856e+05
9.058878392511350271e-04	1.298092375923713407e+05
9.196499956464975704e-04	1.244134210650633468e+05
9.336211066999725722e-04	1.192438339014671801e+05
9.478043411921958147e-04	1.142909414263829531e+05
9.622029158340624508e-04	1.095456120263290941e+05
9.768200959876967293e-04	1.049991002393556118e+05
9.916591963981386242e-04	1.006430301428588864e+05
1.006723581935893954e-03	9.646937997769238427e+04
1.022016668350526989e-03	9.247046703472737863e+04
1.037541923035417528e-03	8.863893342734132602e+04
1.053302865803885284e-03	8.496773170457429660e+04
1.069303069676814412e-03	8.145011287452862598e+04
1.085546161681959871e-03	7.807961259378086834e+04
1.102035823665100224e-03	7.485003991610670346e+04
1.118775793113194715e-03	7.175546515261448803e+04
1.135769863989749334e-03	6.879020924687010120e+04
1.153021887582523922e-03	6.594883293901957222e+04
1.170535773363793469e-03	6.322612666280017584e+04
1.188315489863321032e-03	6.061710080339253909e+04
1.206365065554238945e-03	5.811697644090974063e+04
1.224688589752008549e-03	5.572117636876860342e+04
1.243290213526660089e-03	5.342531659110007604e+04
1.262174150628485184e-03	5.122519817019838956e+04
1.281344678427388936e-03	4.911679925624746829e+04
1.300806138866086436e-03	4.709626787691177742e+04
1.320562939427347929e-03	4.515991442818877113e+04
1.340619554115477603e-03	4.330420501802879153e+04
1.360980524452245870e-03	4.152575479104674741e+04
1.381650460487470746e-03	3.982132156676926388e+04
1.402634041824446292e-03	3.818780024950121879e+04
1.423936018660446881e-03	3.662221609022816119e+04
1.445561212842503109e-03	3.512172015536831896e+04
1.467514518938677461e-03	3.368358347334658174e+04
1.489800905325042255e-03	3.230519210818410284e+04
1.512425415288594496e-03	3.098404226875984023e+04
1.535393168146322084e-03	2.971773564780521701e+04
1.558709360380657093e-03	2.850397498775282293e+04
1.582379266791524930e-03	2.734055978547576888e+04
1.606408241665246766e-03	2.622538222509812476e+04
1.630801719960511646e-03	2.515642317185689535e+04
1.655565218511661140e-03	2.413174875146925478e+04
1.680704337249529830e-03	2.314950613817782141e+04
1.706224760440074300e-03	2.220792071930090242e+04
1.732132257941060380e-03	2.130529250775270702e+04
1.758432686477015517e-03	2.043999304286810730e+04
1.785131990932752001e-03	1.961046236648641934e+04
1.812236205665670747e-03	1.881520614511279564e+04
1.839751455837127306e-03	1.805279285869668456e+04
1.867683958763115748e-03	1.732185120002170515e+04
1.896040025284532592e-03	1.662106750286086026e+04
1.924826061157294431e-03	1.594918331321199912e+04
1.954048568462564677e-03	1.530499305293693214e+04
1.983714147037385876e-03	1.468734180612104137e+04
2.013829495925972563e-03	1.409512316899370671e+04
2.044401414851955683e-03	1.352727719097039699e+04
2.075436805711861326e-03	1.298278844609413864e+04
2.106942674090107621e-03	1.246068412487348905e+04
2.138926130795808841e-03	1.196003225066482810e+04
2.171394393421671211e-03	1.147993995600656126e+04
2.204354787925300908e-03	1.101955184160744102e+04
2.237814750233193140e-03	1.057804836435847210e+04
2.271781827867723653e-03	1.015464437768507742e+04
2.306263681597440617e-03	9.748587631834026979e+03
2.341268087110966959e-03	9.359157424866703877e+03
2.376802936714836681e-03	8.985663237163456870e+03
2.412876241055540542e-03	8.627443500268387652e+03
2.449496130866159280e-03	8.283864351691710908e+03
2.486670858737856284e-03	7.954318462023221400e+03
2.524408800773472392e-03	7.638223945262723646e+03
2.562718458958683845e-03	7.335023250604250279e+03
2.601608462218350012e-03	7.044182174536647835e+03
2.641087568799420186e-03	6.765188856648343062e+03
2.681164668049006074e-03	6.497552842430975943e+03
2.721848782342058994e-03	6.240804185746974326e+03
2.763149069036282667e-03	5.994492583694406676e+03
2.805074822454618148e-03	5.758186551516304462e+03
2.847635475895635669e-03	5.531472628994200022e+03
2.890840603672191651e-03	5.313954626224753156e+03
2.934699923178731192e-03	5.105252894336354984e+03
2.979223296987568246e-03	4.905003630281345067e+03
3.024420734974513861e-03	4.712858213889357103e+03
3.070302396474225426e-03	4.528482566388453961e+03
3.116878592465646431e-03	4.351556540318719271e+03
3.164159787787904510e-03	4.181773335845192378e+03
3.212156603387034213e-03	4.018838938300538757e+03
3.260879818593920461e-03	3.862471584211703430e+03
3.310340373433851274e-03	3.712401242394666497e+03
3.360549370968007182e-03	3.568369125773575433e+03
3.411518079667360051e-03	3.430127218719359462e+03
3.463257935819298756e-03	3.297437821739462379e+03
3.515780545967413240e-03	3.170073122606431298e+03
3.569097689384818136e-03	3.047814784592088017e+03
3.623221320581410197e-03	2.930453539017053572e+03
3.678163571845485813e-03	2.817788815449284357e+03
3.733936755820065588e-03	2.709628371247019004e+03
3.790553368114399097e-03	2.605787945108017084e+03
3.848026089951007631e-03	2.506090922569166651e+03
3.906367790848702497e-03	2.410368014936663712e+03
3.965591531341958360e-03	2.318456952459752756e+03
4.025710565737102183e-03	2.230202193282494136e+03
4.086738344905695500e-03	2.145454637982554232e+03
4.148688519115530278e-03	2.064071362570527526e+03
4.211574940899682866e-03	1.985915358933396192e+03
4.275411667964022430e-03	1.910855289006438852e+03
4.340212966133604085e-03	1.838765246209103907e+03
4.405993312338384732e-03	1.769524529934579277e+03
4.472767397638647592e-03	1.703017426394917948e+03
4.540550130290609866e-03	1.639133002493451386e+03
4.609356638705161893e-03	1.577764903327075217e+03
4.679202275161374949e-03	1.518811163094920857e+03
4.750102618177418946e-03	1.462174023098154066e+03
4.822073476266948260e-03	1.407759753531570823e+03
4.895130891084851013e-03	1.355478486849206092e+03
4.969291140742827795e-03	1.305244056618639661e+03
5.044570743168092994e-03	1.256973843559732359e+03
5.120986459505672342e-03	1.210588627371769462e+03
5.198555297564718194e-03	1.166012445081857777e+03
5.277294515309272765e-03	1.123172455649099675e+03
5.357221624393929474e-03	1.081998810614288459e+03
5.438354393744743685e-03	1.042424528029937164e+03
5.520710853185909796e-03	1.004385375779530250e+03
5.604309297112575021e-03	9.678197538461879503e+02
5.689168288210226174e-03	9.326685876075181341e+02
5.775306661221035406e-03	8.988752226048937928e+02
5.862743526757654110e-03	8.663853223236764052e+02
5.951498275164784565e-03	8.351467755946650868e+02
6.041590580429017678e-03	8.051095983968359633e+02
6.133040404137268115e-03	7.762258513141943013e+02
6.225867999484272636e-03	7.484495519240007297e+02
6.320093915329527169e-03	7.217365951942352922e+02
6.415739000304038209e-03	6.960446727456273948e+02
6.512824406967316140e-03	6.713332020368738995e+02
6.611371596014960043e-03	6.475632529131927413e+02
