# Data associated with arXiv:2208.14002
# 
# Scale-free velocity distribution, f(E), of a nfw1-7rhos4e3 dark matter distribution (see Eq. 2.7 and the surrounding discussion)
# 
# Published: 8/25/22, Jack Runburg and Kenny Kiriu, contact: runburg@hawaii.edu
# 
# 
# -----------------------------------------------------------------
# 
# 	 tilde E 		 | 		 tilde f
# 
# -----------------------------------------------------------------
8.108585280692699737e-02	1.815878817610310912e+08
8.149460876069498927e-02	1.729551103425599933e+08
8.190542501462778902e-02	1.644751337203601897e+08
8.231831195717938254e-02	1.562043627197501659e+08
8.273328002908959811e-02	1.483037508343603611e+08
8.315033972364767323e-02	1.407001016888483465e+08
8.356950158695972131e-02	1.334848988969610184e+08
8.399077621820841277e-02	1.266383982056129724e+08
8.441417426992926798e-02	1.201417859219802469e+08
8.483970644828128793e-02	1.139772462175396532e+08
8.526738351330155619e-02	1.081279098008784354e+08
8.569721627919969775e-02	1.025777625802317560e+08
8.612921561461475695e-02	9.731154991255748272e+07
8.656339244289036616e-02	9.231475986491246521e+07
8.699975774236447246e-02	8.757369467082072794e+07
8.743832254663277959e-02	8.307533549604684114e+07
8.787909794482876014e-02	7.880729883489759266e+07
8.832209508191003755e-02	7.475780955799232423e+07
8.876732515894010522e-02	7.091574347748667002e+07
8.921479943336292628e-02	6.727054018085987866e+07
8.966452921929538022e-02	6.381212022352690995e+07
9.011652588780295903e-02	6.053094359155799448e+07
9.057080086720321888e-02	5.741797946590910852e+07
9.102736564333797908e-02	5.446463013813602179e+07
9.148623175987120881e-02	5.166274773887585849e+07
9.194741081858051612e-02	4.900459867223920673e+07
9.241091447964168426e-02	4.648280773601936549e+07
9.287675446193917328e-02	4.409041359065869451e+07
9.334494254334531338e-02	4.182081979273483902e+07
9.381549056102758688e-02	3.966773283477078378e+07
9.428841041173709192e-02	3.762518025310274214e+07
9.476371405212487276e-02	3.568751988136423379e+07
9.524141349902917608e-02	3.384938966237564385e+07
9.572152082977798682e-02	3.210568588522450998e+07
9.620404818251013235e-02	3.045156839552753419e+07
9.668900775645841716e-02	2.888245059418943524e+07
9.717641181227355818e-02	2.739398599513051286e+07
9.766627267233282672e-02	2.598203985851767659e+07
9.815860272103500705e-02	2.464268352984331921e+07
9.865341440513465676e-02	2.337220115960577503e+07
9.915072023403810608e-02	2.216706624137607962e+07
9.965053278012699078e-02	2.102392441616664454e+07
1.001528646790728755e-01	1.993959257832289115e+07
1.006577286301576779e-01	1.891105510881834850e+07
1.011651373965850725e-01	1.793545466363174841e+07
1.016751038058198719e-01	1.701007182956529409e+07
1.021876407498870792e-01	1.613232468423790112e+07
1.027027611857200401e-01	1.529977184666755982e+07
1.032204781354697093e-01	1.451009315355444886e+07
1.037408046868415201e-01	1.376108520189523511e+07
1.042637539934157115e-01	1.305065997802243382e+07
1.047893392749938007e-01	1.237683421067692898e+07
1.053175738179159132e-01	1.173772722784433514e+07
1.058484709754026892e-01	1.113155570353504829e+07
1.063820441678896139e-01	1.055662590788183920e+07
1.069183068833650802e-01	1.001133244432686828e+07
1.074572726777090065e-01	9.494151779616354033e+06
1.079989551750360766e-01	9.003637022067314014e+06
1.085433680680313040e-01	8.538416107861071825e+06
1.090905251183028751e-01	8.097188377956659533e+06
1.096404401567278725e-01	7.678720417844283395e+06
1.101931270837918780e-01	7.281840555545479991e+06
1.107485998699450774e-01	6.905436762929269113e+06
1.113068725559513000e-01	6.548455131396982819e+06
1.118679592532430267e-01	6.209896431362083182e+06
1.124318741442674324e-01	5.888811906156898476e+06
1.129986314828589494e-01	5.584301052232485265e+06
1.135682455945829228e-01	5.295510544355897233e+06
1.141407308770951562e-01	5.021630770349700935e+06
1.147161018005181804e-01	4.761893127474142238e+06
1.152943729077882812e-01	4.515568855364068411e+06
1.158755588150289367e-01	4.281966853023109958e+06
1.164596742119171358e-01	4.060431305879091378e+06
1.170467338620447412e-01	3.850340117039599922e+06
1.176367526033045424e-01	3.651103405919414014e+06
1.182297453482464428e-01	3.462161274898169562e+06
1.188257270844599450e-01	3.282982816640339792e+06
1.194247128749480052e-01	3.113064510671142954e+06
1.200267178585053413e-01	2.951928544552376959e+06
1.206317572500973517e-01	2.799121921515483409e+06
1.212398463412437677e-01	2.654214921167127322e+06
1.218510005003937274e-01	2.516799776641971432e+06
1.224652351733266503e-01	2.386489700457266066e+06
1.230825658835237452e-01	2.262918123292057309e+06
1.237030082325645403e-01	2.145737271520676091e+06
1.243265779005164468e-01	2.034616981155181536e+06
1.249532906463269449e-01	1.929244355149679352e+06
1.255831623082204473e-01	1.829322662393476348e+06
1.262162088040878205e-01	1.734570358713650377e+06
1.268524461318930874e-01	1.644720369389259489e+06
1.274918903700754391e-01	1.559519419020843459e+06
1.281345576779369944e-01	1.478727400830189697e+06
1.287804642960616863e-01	1.402116493103712797e+06
1.294296265467209384e-01	1.329470592992287129e+06
1.300820608342681817e-01	1.260584816863395739e+06
1.307377836455644593e-01	1.195264815521361306e+06
1.313968115503823808e-01	1.133326255158116808e+06
1.320591612018227334e-01	1.074594349679932697e+06
1.327248493367292614e-01	1.018903283098842367e+06
1.333938927761079418e-01	9.660958204372305190e+05
1.340663084255462600e-01	9.160228873331212671e+05
1.347421132756358719e-01	8.685430315200332552e+05
1.354213244023965423e-01	8.235221264429235598e+05
1.361039589677021933e-01	7.808330143414050108e+05
1.367900342197093944e-01	7.403550538249489618e+05
1.374795674932874079e-01	7.019738407948088134e+05
1.381725762104507316e-01	6.655809034795159241e+05
1.388690778807933068e-01	6.310733559866881697e+05
1.395690901019251695e-01	5.983536325448190328e+05
1.402726305599110435e-01	5.673292080101690954e+05
1.409797170297105440e-01	5.379123351954538375e+05
1.416903673756216564e-01	5.100198114300601883e+05
1.424045995517249363e-01	4.835727239086900372e+05
1.431224316023310406e-01	4.584962411936573335e+05
1.438438816624291461e-01	4.347194086693655117e+05
1.445689679581389220e-01	4.121749324390431284e+05
1.452977088071636114e-01	3.907989986388715333e+05
1.460301226192450563e-01	3.705310928195418674e+05
1.467662278966223866e-01	3.513138343916431768e+05
1.475060432344907080e-01	3.330928065389438998e+05
1.482495873214641768e-01	3.158164064472182072e+05
1.489968789400392957e-01	2.994357055972674862e+05
1.497479369670618177e-01	2.839043038894244237e+05
1.505027803741953718e-01	2.691782017399853794e+05
1.512614282283915312e-01	2.552156782073968498e+05
1.520238996923637675e-01	2.419771665366108355e+05
1.527902140250616825e-01	2.294251524673828972e+05
1.535603905821494031e-01	2.175240654745084466e+05
1.543344488164840878e-01	2.062401704631017637e+05
1.551124082785989844e-01	1.955414804969846737e+05
1.558942886171868769e-01	1.853976660450681811e+05
1.566801095795862520e-01	1.757799663224753458e+05
1.574698910122707962e-01	1.666611100661874225e+05
1.582636528613393934e-01	1.580152410645576310e+05
1.590614151730101733e-01	1.498178398199953372e+05
1.598631980941151165e-01	1.420456536604522844e+05
1.606690218725986552e-01	1.346766376454615965e+05
1.614789068580169407e-01	1.276898901378092851e+05
1.622928735020409963e-01	1.210655906903015857e+05
1.631109423589608698e-01	1.147849445709954889e+05
1.639331340861926167e-01	1.088301307350196585e+05
1.647594694447881702e-01	1.031842530508720811e+05
1.655899692999460993e-01	9.783129082264567842e+04
1.664246546215266409e-01	9.275605123550114513e+04
1.672635464845670661e-01	8.794413196926748788e+04
1.681066660698011528e-01	8.338187573779857485e+04
1.689540346641796587e-01	7.905633242750192585e+04
1.698056736613940132e-01	7.495522315699810861e+04
1.706616045624022859e-01	7.106690679063880816e+04
1.715218489759567089e-01	6.738034469565853942e+04
1.723864286191349182e-01	6.388507049551139789e+04
1.732553653178724729e-01	6.057116124433383811e+04
1.741286810074983149e-01	5.742920733239356196e+04
1.750063977332724507e-01	5.445028752209064987e+04
1.758885376509259635e-01	5.162594368785282859e+04
1.767751230272039675e-01	4.894815547177265398e+04
1.776661762404098954e-01	4.640931875675432093e+04
1.785617197809535595e-01	4.400222394068397989e+04
1.794617762519004900e-01	4.172003499013167311e+04
1.803663683695242714e-01	3.955627064107876504e+04
1.812755189638613762e-01	3.750478586029609141e+04
1.821892509792679971e-01	3.555975417105082306e+04
1.831075874749799881e-01	3.371565141989573749e+04
1.840305516256743046e-01	3.196724006201433804e+04
1.849581667220341619e-01	3.030955406466786735e+04
1.858904561713151382e-01	2.873788517559535467e+04
1.868274434979154408e-01	2.724776939616965683e+04
1.877691523439470045e-01	2.583497424616093122e+04
1.887156064698101432e-01	2.449548692993989971e+04
1.896668297547705329e-01	2.322550284800115332e+04
1.906228461975378596e-01	2.202141478600058326e+04
1.915836799168482429e-01	2.087980273628938085e+04
1.925493551520478241e-01	1.979742407745474338e+04
1.935198962636801301e-01	1.877120450099768641e+04
1.944953277340747688e-01	1.779822927831306879e+04
1.954756741679378462e-01	1.687573490527725153e+04
1.964609602929519305e-01	1.600110127337508493e+04
1.974512109603637489e-01	1.517184430490591149e+04
1.984464511455899249e-01	1.438560878310647604e+04
1.994467059488161109e-01	1.364016180329711278e+04
2.004520005956020590e-01	1.293338630046635808e+04
2.014623604374878030e-01	1.226327509167263997e+04
2.024778109526027825e-01	1.162792518535356066e+04
2.034983777462777421e-01	1.102553237870456724e+04
2.045240865516586848e-01	1.045438611657703950e+04
2.055549632303237118e-01	9.912864629880426946e+03
2.065910337729017499e-01	9.399430320864395981e+03
2.076323242996947205e-01	8.912625410199434555e+03
2.086788610613013184e-01	8.451067797242561937e+03
2.097306704392437882e-01	8.013447150673616306e+03
2.107877789465969209e-01	7.598521124121748471e+03
2.118502132286197159e-01	7.205111866911317520e+03
2.129180000633898173e-01	6.832102704089455074e+03
2.139911663624393390e-01	6.478434907275550358e+03
2.150697391713947415e-01	6.143104702399521557e+03
2.161537456706179305e-01	5.825160442687713839e+03
2.172432131758502971e-01	5.523699887841257805e+03
2.183381691388593671e-01	5.237867622656607637e+03
2.194386411480876709e-01	4.966852640648983652e+03
2.205446569293043335e-01	4.709886051219655201e+03
2.216562443462584964e-01	4.466238873828293436e+03
2.227734314013362915e-01	4.235219972489217980e+03
2.238962462362190931e-01	4.016174090824560153e+03
2.250247171325449880e-01	3.808479991944181165e+03
2.261588725125724120e-01	3.611548690741401970e+03
2.272987409398459502e-01	3.424821774883140733e+03
2.284443511198654686e-01	3.247769826542954888e+03
2.295957319007560227e-01	3.079890910688910935e+03
2.307529122739421512e-01	2.920709148763000940e+03
2.319159213748228920e-01	2.769773363691196209e+03
2.330847884834500172e-01	2.626655803767473117e+03
2.342595430252085997e-01	2.490950922770550278e+03
2.354402145714994676e-01	2.362274226364746482e+03
2.366268328404249888e-01	2.240261179501017068e+03
2.378194276974753552e-01	2.124566169603962408e+03
2.390180291562198078e-01	2.014861521871496507e+03
2.402226673789976397e-01	1.910836575150007320e+03
2.414333726776128619e-01	1.812196791509104060e+03
2.426501755140310912e-01	1.718662924176459228e+03
2.438731065010781573e-01	1.629970214231956788e+03
2.451021964031417644e-01	1.545867651135429242e+03
2.463374761368738730e-01	1.466117249165489284e+03
2.475789767718976908e-01	1.390493375577324514e+03
2.488267295315142735e-01	1.318782107736413991e+03
2.500807657934130401e-01	1.250780624917328396e+03
2.513411170903841474e-01	1.186296632375482432e+03
2.526078151110321968e-01	1.125147813244870349e+03
2.538808917004908294e-01	1.067161314976232006e+03
2.551603788611494505e-01	1.012173252073636604e+03
2.564463087533616625e-01	9.600282439454099404e+02
2.577387136961754588e-01	9.105789723867011389e+02
2.590376261680564229e-01	8.636857622541249384e+02
2.603430788076139812e-01	8.192161882242343154e+02
2.616551044143300420e-01	7.770446889528074053e+02
2.629737359492899107e-01	7.370522254824194306e+02
2.642990065359139273e-01	6.991259270311538785e+02
2.656309494606928223e-01	6.631587887541454620e+02
2.669695981739227952e-01	6.290493417858341445e+02
2.683149862904445904e-01	5.967013904821270671e+02
2.696671475903825721e-01	5.660237261140473493e+02
2.710261160198865205e-01	5.369298705305499197e+02
2.723919256918752030e-01	5.093378309006278073e+02
2.737646108867807238e-01	4.831698663080104552e+02
2.751442060532959810e-01	4.583522668315254691e+02
2.765307458091220694e-01	4.348151455193160473e+02
2.779242649417189570e-01	4.124922383753691406e+02
2.793247984090562186e-01	3.913207174156628980e+02
2.807323813403660995e-01	3.712410126939292354e+02
2.821470490368982453e-01	3.521966408625506233e+02
2.835688369726745428e-01	3.341340477381606888e+02
2.849977807952474018e-01	3.170024544253618615e+02
2.864339163264568722e-01	3.007537148911125655e+02
2.878772795631915904e-01	2.853421771148044286e+02
2.893279066781488940e-01	2.707245559875832441e+02
2.907858340205970449e-01	2.568598086976165860e+02
2.922510981171386746e-01	2.437090194808005208e+02
2.937237356724747839e-01	2.312352885443922617e+02
2.952037835701704638e-01	2.194036286919876204e+02
2.966912788734202278e-01	2.081808636761409161e+02
2.981862588258164526e-01	1.975355368170991710e+02
2.996887608521160984e-01	1.874378203439592596e+02
3.011988225590100932e-01	1.778594313698862948e+02
3.027164817358926618e-01	1.687735516081818048e+02
3.042417763556313215e-01	1.601547513369810360e+02
3.057747445753380422e-01	1.519789176204215551e+02
3.073154247371390757e-01	1.442231858143809973e+02
3.088638553689483923e-01	1.368658747022851117e+02
3.104200751852381757e-01	1.298864254761637369e+02
3.119841230877976046e-01	1.232653433387813635e+02
3.135560381665577490e-01	1.169841421682213394e+02
3.151358597002901774e-01	1.110252925740555838e+02
3.167236271574263573e-01	1.053721720217808269e+02
3.183193801968185466e-01	1.000090178175060771e+02
3.199231586685130080e-01	9.492088274250826885e+01
3.215350026145220030e-01	9.009359263039793575e+01
3.231549522695956189e-01	8.551370622811890598e+01
3.247830480619935956e-01	8.116847743000737125e+01
3.264193306142560980e-01	7.704581893196248643e+01
3.280638407439744886e-01	7.313426850998344264e+01
3.297166194645613224e-01	6.942295622768078545e+01
3.313777079860187880e-01	6.590157402247650964e+01
3.330471477157073701e-01	6.256034644001701395e+01
3.347249802591127366e-01	5.939000311668426235e+01
3.364112474206117920e-01	5.638175257600128987e+01
3.381059912042377325e-01	5.352725747572150539e+01
3.398092538144428798e-01	5.081861105195834938e+01
3.415210776568615159e-01	4.824831481546642920e+01
3.432415053390696635e-01	4.580925743054957877e+01
3.449705796713438688e-01	4.349469464665517648e+01
3.467083436674183727e-01	4.129823031486692742e+01
3.484548405452396191e-01	3.921379839490158759e+01
3.502101137277192078e-01	3.723564579419991816e+01
3.519742068434846272e-01	3.535831624829496889e+01
3.537471637276265457e-01	3.357663487829629645e+01
3.555290284224459918e-01	3.188569374722612793e+01
3.573198451781957052e-01	3.028083792651033335e+01
3.591196584538210446e-01	2.875765247483834841e+01
3.609285129176966200e-01	2.731195005480430638e+01
3.627464534483608172e-01	2.593975902969399527e+01
3.645735251352461015e-01	2.463731248641632732e+01
3.664097732794056039e-01	2.340103752460264275e+01
3.682552433942378189e-01	2.222754526169349631e+01
3.701099812062053074e-01	2.111362133115703799e+01
3.719740326555502352e-01	2.005621685461385439e+01
3.738474438970062486e-01	1.905243987830237273e+01
3.757302613006276437e-01	1.809954728626494713e+01
3.776225314520413323e-01	1.719493709619619182e+01
3.795243011537764444e-01	1.633614117884587458e+01
3.814356174255633114e-01	1.552081832485989210e+01
3.833565275051111221e-01	1.474674771175900112e+01
3.852870788488091947e-01	1.401182268253392849e+01
3.872273191324085984e-01	1.331404484183755699e+01
3.891772962517451862e-01	1.265151848467727191e+01
3.911370583237108733e-01	1.202244527039969135e+01
3.931066536911219100e-01	1.142511923714769928e+01
3.950861308817044670e-01	1.085792200014132369e+01
3.970755387282281501e-01	1.031931824667065101e+01
3.990749262076465631e-01	9.807851462495779771e+00
4.010843425530236650e-01	9.322139844832740607e+00
4.031038372187926155e-01	8.860872482268314698e+00
4.051334598841991874e-01	8.422805656031664867e+00
4.071732604541529188e-01	8.006759435658528545e+00
4.092232890598752615e-01	7.611614335308613200e+00
4.112835960595038198e-01	7.236308237828469103e+00
4.133542320398770897e-01	6.879833421293879425e+00
4.154352478122839698e-01	6.541233763406083312e+00
4.175266944203194774e-01	6.219602082681165101e+00
4.196286231355307872e-01	5.914077625910199032e+00
4.217410854592003600e-01	5.623843667606131191e+00
4.238641331228759079e-01	5.348125253979494786e+00
4.259978180888922550e-01	5.086187049260349369e+00
4.281421925508788195e-01	4.837331298434369486e+00
4.302973089342576052e-01	4.600895897564503123e+00
4.324632198967289787e-01	4.376252556077775857e+00
4.346399783287442919e-01	4.162805069658968016e+00
4.368276373539661805e-01	3.959987651017245369e+00
4.390262503297161500e-01	3.767263387878918124e+00
4.412358708474083957e-01	3.584122751824041941e+00
4.434565527329690782e-01	3.410082190435092198e+00
4.456883500472427206e-01	3.244682795721866686e+00
4.479313170863826188e-01	3.087489038860979917e+00
4.501855083822266512e-01	2.938087574138949165e+00
4.524509787026573804e-01	2.796086093813995976e+00
4.547277830519452224e-01	2.661112256050120806e+00
4.570159766712286742e-01	2.532812658199297129e+00
4.593156150382824987e-01	2.410851866262192278e+00
4.616267538685658867e-01	2.294911495111501498e+00
4.639494491150386035e-01	2.184689334064058741e+00
4.662837569686493211e-01	2.079898520000613704e+00
4.686297338592292361e-01	1.980266750459175551e+00
4.709874364416805625e-01	1.885535539110390957e+00
4.733569216489995624e-01	1.795459508310369490e+00
4.757382466045461666e-01	1.709805720610050761e+00
4.781314686948894832e-01	1.628353031848520649e+00
4.805366455451273722e-01	1.550891525433579554e+00
4.829538350154052861e-01	1.477221873874092095e+00
4.853830952042306190e-01	1.407154856826348333e+00
4.878244844550530535e-01	1.340510819068476689e+00
4.902780613428471268e-01	1.277119186121412620e+00
4.927438846901871505e-01	1.216818000437985159e+00
4.952220135501850251e-01	1.159453484366099518e+00
4.977125072218147595e-01	1.104879617494278765e+00
5.002154252439309223e-01	1.052957747914146758e+00
5.027308273864097288e-01	1.003556213701288558e+00
5.052587736692134568e-01	9.565499854650276745e-01
5.077993243391020206e-01	9.118203320386158994e-01
5.103525398907643451e-01	8.692544962865190739e-01
5.129184810574377584e-01	8.287453954913133192e-01
5.154972088017318876e-01	7.901913276569000333e-01
5.180887843327707243e-01	7.534957022650718983e-01
5.206932690978055556e-01	7.185667788387152255e-01
5.233107247721451305e-01	6.853174203465491887e-01
5.259412132770481252e-01	6.536648321406782758e-01
5.285847967706335249e-01	6.235304534721495262e-01
5.312415376378001319e-01	5.948395745783702226e-01
5.339114985081797604e-01	5.675212534895559546e-01
5.365947422467524097e-01	5.415080971176188251e-01
5.392913319438632502e-01	5.167360814846316819e-01
5.420013309328090001e-01	4.931443811584520498e-01
5.447248027803778259e-01	4.706752073819617244e-01
5.474618112771753031e-01	4.492736544825401968e-01
5.502124204543544783e-01	4.288875541136646374e-01
5.529766945744195583e-01	4.094673369433609600e-01
5.557546981218393078e-01	3.909659013932031413e-01
5.585464958188007811e-01	3.733384890559880986e-01
5.613521526170655029e-01	3.565425665008867817e-01
5.641717336747534839e-01	3.405377130578806644e-01
5.670053044308245305e-01	3.252855143496999335e-01
5.698529304805665108e-01	3.107494612368504328e-01
5.727146776891095525e-01	2.968948538965839323e-01
5.755906121306495482e-01	2.836887107886881809e-01
