# Data associated with arXiv:2208.14002
# 
# Scale-free velocity distribution, f(E), of a nfw1-0rhos8e6 dark matter distribution (see Eq. 2.7 and the surrounding discussion)
# 
# Published: 8/25/22, Jack Runburg and Kenny Kiriu, contact: runburg@hawaii.edu
# 
# 
# -----------------------------------------------------------------
# 
# 	 tilde E 		 | 		 tilde f
# 
# -----------------------------------------------------------------
4.999966666916665389e-06	2.710225876253606319e+09
5.084478379848520133e-06	2.606054956391376019e+09
5.170418538380237103e-06	2.503191118151989937e+09
5.257811286247489841e-06	2.402248490844067097e+09
5.346681175254475793e-06	2.305159454527122021e+09
5.437053172170461109e-06	2.210593613075391769e+09
5.528952665743044882e-06	2.119908148168603182e+09
5.622405473829764064e-06	2.032944041975148201e+09
5.717437850650368380e-06	1.949547467299123049e+09
5.814076494161556732e-06	1.869571886190745354e+09
5.912348553556311299e-06	1.792877536499458075e+09
6.012281636890092608e-06	1.719330488001800537e+09
6.113903818835718394e-06	1.648801241109916449e+09
6.217243648569482587e-06	1.581165027704775810e+09
6.322330157790336408e-06	1.516303758654259443e+09
6.429192868874767520e-06	1.454103912519114971e+09
6.537861803169358463e-06	1.394456077598255873e+09
6.648367489423461276e-06	1.337254926246710062e+09
6.760740972364509928e-06	1.282400581228117228e+09
6.875013821418025459e-06	1.229797246072832584e+09
6.991218139575197122e-06	1.179351856567767143e+09
7.109386572410078358e-06	1.130975765645576715e+09
7.229552317249357952e-06	1.084584496862693787e+09
7.351749132496946804e-06	1.040096467417665839e+09
7.476011347116110273e-06	9.974337441578845978e+08
7.602373870271986220e-06	9.565215681728056669e+08
7.730872201136798597e-06	9.172874488703435659e+08
7.861542438860996313e-06	8.796627600729990005e+08
7.994421292712631486e-06	8.435819479356100559e+08
8.129546092388319461e-06	8.089813614599330425e+08
8.266954798498142129e-06	7.757999760299160480e+08
8.406686013227985160e-06	7.439798987872252464e+08
8.548778991181851114e-06	7.134654380603920221e+08
8.693273650407367130e-06	6.842028144246451855e+08
8.840210583607773705e-06	6.561405337243081331e+08
8.989631069543074562e-06	6.292293849529361725e+08
9.141577084624118599e-06	6.034223371252145767e+08
9.296091314702276993e-06	5.786740269784935713e+08
9.453217167058613503e-06	5.549408235443894863e+08
9.612998782595416028e-06	5.321812090665975809e+08
9.775481048233723190e-06	5.103553597947067618e+08
9.940709609520515284e-06	4.894248724228073359e+08
1.010873088344859859e-05	4.693529118679058552e+08
1.027959207149342332e-05	4.501042882720776796e+08
1.045334117286983528e-05	4.316453749545393586e+08
1.063002699801310167e-05	4.139436905737827420e+08
1.080969918228750567e-05	3.969680446233922839e+08
1.099240819992653692e-05	3.806887678465451598e+08
1.117820537820882136e-05	3.650773021289849877e+08
1.136714291187321589e-05	3.501062045740488768e+08
1.155927387777779437e-05	3.357492348742213845e+08
1.175465224980613839e-05	3.219811635037479401e+08
1.195333291402578298e-05	3.087778291212551594e+08
1.215537168410254933e-05	2.961160922776371241e+08
1.236082531697525195e-05	2.839737083121984005e+08
1.256975152879548660e-05	2.723293952395094037e+08
1.278220901113630196e-05	2.611627298045561016e+08
1.299825744747511860e-05	2.504540791475353539e+08
1.321795752995467803e-05	2.401846410321269631e+08
1.344137097642753938e-05	2.303364116792982519e+08
1.366856054778823194e-05	2.208921491042849123e+08
1.389959006559822183e-05	2.118352665844605565e+08
1.413452443000885472e-05	2.031498408336679041e+08
1.437342963798667918e-05	1.948206377531487644e+08
1.461637280184707133e-05	1.868330688806662560e+08
1.486342216810048756e-05	1.791731148109220564e+08
1.511464713661749462e-05	1.718273153676158190e+08
1.537011828011726139e-05	1.647827955531017482e+08
1.562990736398520920e-05	1.580272039615601897e+08
1.589408736642576378e-05	1.515486751005261540e+08
1.616273249895500106e-05	1.453358424048916101e+08
1.643591822723999556e-05	1.393778135917248130e+08
1.671372129228959242e-05	1.336641338116740584e+08
1.699621973200365411e-05	1.281847780277177989e+08
1.728349290308593824e-05	1.229301403023198992e+08
1.757562150332706111e-05	1.178909955008314103e+08
1.787268759426421128e-05	1.130585041925420612e+08
1.817477462422304780e-05	1.084241924654096216e+08
1.848196745174931501e-05	1.039799259513541460e+08
1.879435236943567596e-05	9.971791321305683255e+07
1.911201712815146941e-05	9.563068092558911443e+07
1.943505096168135325e-05	9.171105509187519550e+07
1.976354461178003762e-05	8.795215538828441501e+07
2.009759035365054134e-05	8.434739667557008564e+07
2.043728202185218871e-05	8.089046020283102989e+07
2.078271503664673591e-05	7.757527338142195344e+07
2.113398643078881015e-05	7.439602381155255437e+07
2.149119487676938607e-05	7.134713961931854486e+07
2.185444071451891654e-05	6.842327280412104726e+07
2.222382597957828299e-05	6.561929276303691417e+07
2.259945443174592069e-05	6.293028093731617182e+07
2.298143158420802039e-05	6.035152560582519323e+07
2.336986473316135082e-05	5.787850394372732192e+07
2.376486298793558662e-05	5.550687721381022781e+07
2.416653730162493697e-05	5.323248815275602788e+07
2.457500050223656920e-05	5.105134846357186884e+07
2.499036732436496882e-05	4.895963286750788242e+07
2.541275444140161076e-05	4.695367484871109575e+07
2.584228049828771092e-05	4.502995577634442598e+07
2.627906614482085254e-05	4.318510261395500600e+07
2.672323406952309370e-05	4.141588294036091119e+07
2.717490903408167601e-05	3.971919312071200460e+07
2.763421790837073341e-05	3.809205811756871641e+07
2.810128970606421306e-05	3.653162712238051742e+07
2.857625562085062336e-05	3.503516365307885408e+07
2.905924906325835707e-05	3.360004381413112581e+07
2.955040569810354992e-05	3.222375256009757891e+07
3.004986348256928359e-05	3.090387720498156175e+07
3.055776270492842870e-05	2.963810408615745977e+07
3.107424602391961469e-05	2.842421455058138072e+07
3.159945850878786966e-05	2.726008071420841664e+07
3.213354768000181271e-05	2.614366256718936190e+07
3.267666355065716646e-05	2.507300314122588560e+07
3.322895866858017631e-05	2.404622587720795721e+07
3.379058815914069431e-05	2.306153172728694603e+07
3.436170976878883234e-05	2.211719491512991488e+07
3.494248390932582350e-05	2.121156050686770678e+07
3.553307370292206147e-05	2.034304143368177488e+07
3.613364502789559918e-05	1.951011594888657331e+07
3.674436656526227426e-05	1.871132454096983001e+07
3.736540984607252474e-05	1.794526741973454133e+07
3.799694929954593365e-05	1.721060259786164016e+07
3.863916230201919628e-05	1.650604288633571193e+07
3.929222922671936179e-05	1.583035391874380596e+07
3.995633349437695205e-05	1.518235205744743533e+07
4.063166162469399425e-05	1.456090188386824355e+07
4.131840328867923901e-05	1.396491487726036273e+07
4.201675136186785710e-05	1.339334731445500255e+07
4.272690197843771037e-05	1.284519786731975526e+07
4.344905458624000492e-05	1.231950640366671607e+07
4.418341200275753338e-05	1.181535226387791522e+07
4.493018047200704733e-05	1.133185244266769662e+07
4.568956972240246990e-05	1.086816016856856085e+07
4.646179302559299591e-05	1.042346361346437782e+07
4.724706725629517504e-05	9.996984068485982716e+06
4.804561295313286925e-05	9.587974530082849786e+06
4.885765438050504076e-05	9.195718886346375570e+06
4.968341959149553272e-05	8.819530501042049378e+06
5.052314049184557140e-05	8.458750783007778227e+06
5.137705290500395853e-05	8.112748056956587359e+06
5.224539663827518096e-05	7.780916552627592348e+06
5.312841555008319825e-05	7.462675455439121462e+06
5.402635761836880425e-05	7.157467753910434432e+06
5.493947501014186737e-05	6.864759192403844558e+06
5.586802415220507831e-05	6.584037515151150525e+06
5.681226580307127569e-05	6.314811479525967501e+06
5.777246512609308585e-05	6.056609886456577107e+06
5.874889176382569358e-05	5.808980873095858842e+06
5.974181991364382470e-05	5.571491208861565217e+06
6.075152840463267969e-05	5.343725343043704517e+06
6.177830077577675227e-05	5.125284770442130975e+06
6.282242535546537078e-05	4.915787393004637212e+06
6.388419534233940450e-05	4.714866677819622681e+06
6.496390888750069685e-05	4.522171166787302122e+06
6.606186917810706832e-05	4.337363863726247102e+06
6.717838452237692454e-05	4.160121506262450479e+06
6.831376843602559397e-05	3.990134120452533942e+06
6.946833973016001236e-05	3.827104458024019375e+06
7.064242260065327545e-05	3.670747422256045043e+06
7.183634671902636821e-05	3.520789629205984529e+06
7.305044732486104498e-05	3.376968913167369552e+06
7.428506531976992219e-05	3.239033818284681067e+06
7.554054736295056326e-05	3.106743236589130946e+06
7.681724596834820786e-05	2.979865932278516237e+06
7.811551960345769290e-05	2.858180131858918816e+06
7.943573278978744183e-05	2.741473169607113581e+06
8.077825620501836014e-05	2.629541098516589962e+06
8.214346678688167923e-05	2.522188319086025935e+06
8.353174783878771891e-05	2.419227264230278321e+06
8.494348913723383937e-05	2.320478051681243349e+06
8.637908704102024591e-05	2.225768172313579824e+06
8.783894460230737896e-05	2.134932184040576220e+06
8.932347167954070668e-05	2.047811427162844688e+06
9.083308505228021698e-05	1.964253744623634964e+06
9.236820853796081927e-05	1.884113224512063898e+06
9.392927311062019375e-05	1.807249920436885208e+06
9.551671702162569267e-05	1.733529634040749399e+06
9.713098592243203351e-05	1.662823664029398002e+06
9.877253298940824632e-05	1.595008579718664987e+06
1.004418190507626741e-04	1.529966013700295938e+06
1.021393127156075515e-04	1.467582449315597070e+06
1.038654905051929363e-04	1.407749016260574572e+06
1.056208369863511666e-04	1.350361309034943348e+06
1.074058449071861317e-04	1.295319205744819948e+06
1.092210153350457638e-04	1.242526680422044126e+06
1.110668577968167560e-04	1.191891645066591213e+06
1.129438904215777852e-04	1.143325784491749946e+06
1.148526400856553816e-04	1.096744399462630274e+06
1.167936425601170578e-04	1.052066264337312430e+06
1.187674426607472058e-04	1.009213484012110508e+06
1.207745944005445107e-04	9.681113500773940468e+05
1.228156611447842603e-04	9.286882147826672299e+05
1.248912157686886903e-04	8.908753711547476705e+05
1.270018408177465497e-04	8.546069212223819923e+05
1.291481286707312599e-04	8.198196692121811211e+05
1.313306817054566019e-04	7.864530080354212550e+05
1.335501124673205522e-04	7.544488143586331280e+05
1.358070438406815692e-04	7.237513444117056206e+05
1.381021092231148463e-04	6.943071371931768954e+05
1.404359527025981331e-04	6.660649232490727445e+05
1.428092292376724178e-04	6.389755324036164675e+05
1.452226048406331444e-04	6.129918084200456506e+05
1.476767567637959021e-04	5.880685261898036115e+05
1.501723736888928296e-04	5.641623130411290331e+05
1.527101559196495804e-04	5.412315730744797038e+05
1.552908155775968710e-04	5.192364129112907103e+05
1.579150768011707646e-04	4.981385731924754218e+05
1.605836759481537907e-04	4.779013623171710060e+05
1.632973618015188849e-04	4.584895899630560307e+05
1.660568957787249159e-04	4.398695066620431608e+05
1.688630521445276544e-04	4.220087454197549960e+05
1.717166182273617808e-04	4.048762645728881471e+05
1.746183946393538571e-04	3.884422932911310345e+05
1.775691955000281469e-04	3.726782793383893440e+05
1.805698486637626087e-04	3.575568393912655301e+05
1.836211959510650757e-04	3.430517112290674704e+05
1.867240933837241033e-04	3.291377076699172612e+05
1.898794114239063123e-04	3.157906726258298731e+05
1.930880352172620004e-04	3.029874391961611691e+05
1.963508648401065951e-04	2.907057880639312789e+05
1.996688155507472557e-04	2.789244089840483502e+05
2.030428180450184826e-04	2.676228650818932219e+05
2.064738187161059644e-04	2.567815550475008786e+05
2.099627799187183731e-04	2.463816800688914664e+05
2.135106802376891821e-04	2.364052101520430006e+05
2.171185147610761351e-04	2.268348535725847178e+05
2.207872953578353967e-04	2.176540259245546767e+05
2.245180509601469850e-04	2.088468213345145050e+05
2.283118278504634498e-04	2.003979849120777799e+05
2.321696899533706737e-04	1.922928855666544987e+05
2.360927191323271214e-04	1.845174909607742738e+05
2.400820154913739133e-04	1.770583428024657187e+05
2.441386976818912900e-04	1.699025329967079160e+05
2.482639032144876088e-04	1.630376818553998310e+05
2.524587887761063892e-04	1.564519158229129680e+05
2.567245305524329911e-04	1.501338469471503049e+05
2.610623245556987246e-04	1.440725529722675565e+05
2.654733869579571702e-04	1.382575583603131818e+05
2.699589544299391001e-04	1.326788159192798194e+05
2.745202844855641148e-04	1.273266892123134603e+05
2.791586558322111289e-04	1.221919358458797506e+05
2.838753687268419216e-04	1.172656913595956867e+05
2.886717453380665491e-04	1.125394535963018570e+05
2.935491301142636469e-04	1.080050679109032353e+05
2.985088901578362855e-04	1.036547130621814722e+05
3.035524156057246500e-04	9.948088754494585737e+04
3.086811200162599997e-04	9.547639628742588684e+04
3.138964407624783592e-04	9.163433836566950777e+04
3.191998394319943378e-04	8.794809475111993379e+04
3.245928022335382922e-04	8.441131726164594875e+04
3.300768404102812992e-04	8.101791652632005571e+04
3.356534906600379289e-04	7.776205229339821381e+04
3.413243155624835876e-04	7.463812287557523814e+04
3.470909040134793487e-04	7.164075539544691856e+04
3.529548716666380619e-04	6.876479641341415117e+04
3.589178613822402138e-04	6.600530297867969784e+04
3.649815436836249295e-04	6.335753403659421019e+04
3.711476172211778703e-04	6.081694213474175194e+04
3.774178092440349098e-04	5.837916552428268187e+04
3.837938760796410186e-04	5.604002043578161101e+04
3.902776036212757564e-04	5.379549402988624206e+04
3.968708078236900076e-04	5.164173739206717437e+04
4.035753352069784239e-04	4.957505843898044259e+04
4.103930633688248350e-04	4.759191594253762014e+04
4.173259015052585932e-04	4.568891320443946461e+04
4.243757909400526040e-04	4.386279213664551935e+04
4.315447056629209059e-04	4.211042753153028025e+04
4.388346528766370099e-04	4.042882178774108615e+04
4.462476735532370955e-04	3.881509952210240590e+04
4.537858429994455923e-04	3.726650267453028209e+04
4.614512714314750988e-04	3.578038569860865391e+04
4.692461045593572522e-04	3.435421090941792500e+04
4.771725241809475536e-04	3.298554414412929327e+04
4.852327487857809843e-04	3.167205046840403156e+04
4.934290341689138819e-04	3.041149016197213132e+04
5.017636740549350372e-04	2.920171484402348869e+04
5.102390007322968237e-04	2.804066360715678820e+04
5.188573856981406988e-04	2.692635965969278186e+04
5.276212403137819310e-04	2.585690671208392087e+04
5.365330164710311982e-04	2.483048574881417153e+04
5.455952072695193205e-04	2.384535188119131635e+04
5.548103477052123691e-04	2.289983130611536035e+04
5.641810153702900808e-04	2.199231837273620113e+04
5.737098311645750376e-04	2.112127287972421254e+04
5.833994600186936724e-04	2.028521730108950214e+04
5.932526116291626317e-04	1.948273430178776471e+04
6.032720412055894710e-04	1.871246423983888235e+04
6.134605502301789361e-04	1.797310282821119836e+04
6.238209872297490952e-04	1.726339886270459465e+04
6.343562485604500910e-04	1.658215206334463437e+04
6.450692792053947661e-04	1.592821098807214912e+04
6.559630735854016280e-04	1.530047105053396444e+04
6.670406763830648289e-04	1.469787258537557682e+04
6.783051833803593238e-04	1.411939904414460216e+04
6.897597423100013028e-04	1.356407520386028227e+04
7.014075537207746644e-04	1.303096550833092624e+04
7.132518718570551169e-04	1.251917243193283321e+04
7.252960055527524338e-04	1.202783493257231203e+04
7.375433191398972441e-04	1.155612696636731744e+04
7.499972333721088239e-04	1.110325605248837928e+04
7.626612263631753642e-04	1.066846191590669514e+04
7.755388345409922881e-04	1.025101514567360027e+04
7.886336536170855411e-04	9.850216012225355371e+03
8.019493395719871085e-04	9.465393127471859771e+03
8.154896096566942396e-04	9.095902405683124016e+03
8.292582434104725855e-04	8.741125908027359401e+03
8.432590836952606403e-04	8.400470763248247749e+03
8.574960377469322253e-04	8.073368169756263342e+03
8.719730782436861151e-04	7.759272396059718631e+03
8.866942443918196526e-04	7.457659851917305787e+03
9.016636430291738837e-04	7.168028184009451252e+03
9.168854497465110708e-04	6.889895407538987456e+03
9.323639100271108142e-04	6.622799078811399340e+03
9.481033404048684089e-04	6.366295499210730668e+03
9.641081296411751610e-04	6.119958948686383337e+03
9.803827399208868421e-04	5.883380957360533102e+03
9.969317080676515491e-04	5.656169603581523916e+03
1.013759646778922881e-03	5.437948836196473167e+03
1.030871245880940435e-03	5.228357830993993957e+03
1.048271273603998324e-03	5.027050374179675600e+03
1.065964577878302259e-03	4.833694255624093785e+03
1.083956087650744153e-03	4.647970715640969502e+03
1.102250814222902791e-03	4.469573888406142032e+03
1.120853852610594536e-03	4.298210277868369303e+03
1.139770382925316258e-03	4.133598251276491283e+03
1.159005671777897477e-03	3.975467567889894326e+03
1.178565073704708260e-03	3.823558905959273943e+03
1.198454032616761344e-03	3.677623416038046344e+03
1.218678083272056734e-03	3.537422312667409642e+03
1.239242852771515503e-03	3.402726440427310536e+03
1.260154062078868396e-03	3.273315912224879412e+03
1.281417527564838142e-03	3.148979696795405744e+03
1.303039162576007104e-03	3.029515291405957669e+03
1.325024979028716771e-03	2.914728360276803414e+03
1.347381089028385067e-03	2.804432399814426390e+03
1.370113706514614667e-03	2.698448432315062746e+03
1.393229148932475896e-03	2.596604691333012397e+03
1.416733838930358006e-03	2.498736330619135060e+03
1.440634306084765705e-03	2.404685145803321120e+03
1.464937188652478328e-03	2.314299302821904348e+03
1.489649235350457663e-03	2.227433080972553853e+03
1.514777307163920955e-03	2.143946622433587436e+03
1.540328379182981551e-03	2.063705697347109890e+03
1.566309542468285023e-03	1.986581474113978402e+03
1.592728005946055132e-03	1.912450301522097334e+03
1.619591098332963603e-03	1.841193497014730383e+03
1.646906270091287507e-03	1.772697147457788560e+03
1.674681095414752834e-03	1.706851916209853243e+03
1.702923274245530432e-03	1.643552852943006428e+03
1.731640634322816931e-03	1.582699226571088275e+03
1.760841133263454277e-03	1.524194338436772796e+03
1.790532860675051905e-03	1.467945374940441070e+03
1.820724040302044815e-03	1.413863242361700713e+03
1.851423032205189731e-03	1.361862415330668227e+03
1.882638334974937174e-03	1.311860797963115147e+03
1.914378587979173596e-03	1.263779580367579911e+03
1.946652573645797852e-03	1.217543107544886425e+03
1.979469219780630521e-03	1.173078752100081829e+03
2.012837601921134856e-03	1.130316791805325920e+03
2.046766945726440513e-03	1.089190291907836126e+03
2.081266629404178534e-03	1.049634992490491868e+03
2.116346186174620277e-03	1.011589201143812716e+03
2.152015306772636118e-03	9.749936885477098940e+02
2.188283841987973335e-03	9.397915899198945908e+02
2.225161805244380529e-03	9.059283084406052922e+02
2.262659375218096375e-03	8.733514252157743840e+02
2.300786898496226182e-03	8.420106100019756923e+02
2.339554892275523199e-03	8.118575379066464848e+02
2.378974047102136707e-03	7.828458103424683259e+02
2.419055229652839964e-03	7.549308717623022176e+02
2.459809485558280516e-03	7.280699420123389700e+02
2.501248042268815371e-03	7.022219419067010904e+02
2.543382311963456217e-03	6.773474225144459524e+02
2.586223894502510164e-03	6.534085051398760697e+02
2.629784580424420794e-03	6.303688134116024457e+02
2.674076353987432739e-03	6.081934140345782680e+02
2.719111396256591526e-03	5.868487597110517981e+02
2.764902088236675416e-03	5.663026329691581395e+02
2.811461014051608743e-03	5.465240924628217272e+02
2.858800964170942187e-03	5.274834222370731140e+02
2.906934938683986783e-03	5.091520821002010280e+02
2.955876150622129862e-03	4.915026606190515963e+02
3.005638029329979130e-03	4.745088297347546700e+02
3.056234223885872202e-03	4.581453017088473416e+02
3.107678606572350077e-03	4.423877868722375410e+02
3.159985276397182623e-03	4.272129541119970781e+02
3.213168562665521134e-03	4.125983920801954810e+02
3.267243028603802890e-03	3.985225726444058409e+02
3.322223475035931180e-03	3.849648156742334209e+02
3.378124944112401249e-03	3.719052545309615425e+02
3.434962723092902133e-03	3.593248041163616904e+02
