# Data associated with arXiv:2208.14002
# 
# Scale-free velocity distribution, f(E), of a nfw1-7rhos4e4_truncated dark matter distribution (see Eq. 2.7 and the surrounding discussion)
# 
# Published: 8/25/22, Jack Runburg and Kenny Kiriu, contact: runburg@hawaii.edu
# 
# 
# -----------------------------------------------------------------
# 
# 	 tilde E 		 | 		 tilde f
# 
# -----------------------------------------------------------------
8.108585280692699737e-02	3.028825107751025677e+09
8.149460876069498927e-02	2.898627885639877319e+09
8.190542501462778902e-02	2.770699079095752716e+09
8.231831195717938254e-02	2.645756359347305298e+09
8.273328002908959811e-02	2.526067519409645081e+09
8.315033972364767323e-02	2.410030379311451435e+09
8.356950158695972131e-02	2.299212481877470493e+09
8.399077621820841277e-02	2.193384779445429802e+09
8.441417426992926798e-02	2.092327238748466015e+09
8.483970644828128793e-02	1.995829664668972731e+09
8.526738351330155619e-02	1.903691549972787142e+09
8.569721627919969775e-02	1.815720978373424768e+09
8.612921561461475695e-02	1.731733612252614737e+09
8.656339244289036616e-02	1.651552674214269876e+09
8.699975774236447246e-02	1.575009992617830276e+09
8.743832254663277959e-02	1.501944460501844883e+09
8.787909794482876014e-02	1.432201595139289379e+09
8.832209508191003755e-02	1.365633336115668535e+09
8.876732515894010522e-02	1.302098745320324421e+09
8.921479943336292628e-02	1.241462974011253119e+09
8.966452921929538022e-02	1.183596289476167440e+09
9.011652588780295903e-02	1.128374970759318829e+09
9.057080086720321888e-02	1.075681010857982159e+09
9.102736564333797908e-02	1.025401190383175731e+09
9.148623175987120881e-02	9.774274176925134659e+08
9.194741081858051612e-02	9.316563088433318138e+08
9.241091447964168426e-02	8.879885126938294172e+08
9.287675446193917328e-02	8.463295841106470823e+08
9.334494254334531338e-02	8.065893647721925974e+08
9.381549056102758688e-02	7.686811831488621235e+08
9.428841041173709192e-02	7.325221890471285582e+08
9.476371405212487276e-02	6.980335586720846891e+08
9.524141349902917608e-02	6.651398363655486107e+08
9.572152082977798682e-02	6.337686750090576410e+08
9.620404818251013235e-02	6.038509735577969551e+08
9.668900775645841716e-02	5.753207907224756479e+08
9.717641181227355818e-02	5.481152009862091541e+08
9.766627267233282672e-02	5.221739160610019565e+08
9.815860272103500705e-02	4.974392509426783323e+08
9.865341440513465676e-02	4.738562753052989244e+08
9.915072023403810608e-02	4.513724988979200125e+08
9.965053278012699078e-02	4.299376474663382173e+08
1.001528646790728755e-01	4.095036878181493878e+08
1.006577286301576779e-01	3.900248108964779377e+08
1.011651373965850725e-01	3.714573256215065122e+08
1.016751038058198719e-01	3.537593644306314588e+08
1.021876407498870792e-01	3.368909145532303452e+08
1.027027611857200401e-01	3.208138981723909378e+08
1.032204781354697093e-01	3.054918876233908534e+08
1.037408046868415201e-01	2.908900675405875444e+08
1.042637539934157115e-01	2.769752297056721449e+08
1.047893392749938007e-01	2.637156317160866559e+08
1.053175738179159132e-01	2.510809826922759116e+08
1.058484709754026892e-01	2.390423787499950528e+08
1.063820441678896139e-01	2.275721956229687035e+08
1.069183068833650802e-01	2.166440883400832713e+08
1.074572726777090065e-01	2.062329002935549617e+08
1.079989551750360766e-01	1.963145931777514219e+08
1.085433680680313040e-01	1.868662338468227088e+08
1.090905251183028751e-01	1.778659519786823988e+08
1.096404401567278725e-01	1.692928844712285697e+08
1.101931270837918780e-01	1.611270934007214904e+08
1.107485998699450774e-01	1.533495435864014626e+08
1.113068725559513000e-01	1.459420900073876977e+08
1.118679592532430267e-01	1.388874290264975131e+08
1.124318741442674324e-01	1.321690361950691789e+08
1.129986314828589494e-01	1.257711369109033495e+08
1.135682455945829228e-01	1.196786988854508698e+08
1.141407308770951562e-01	1.138773788250543177e+08
1.147161018005181804e-01	1.083534848029015511e+08
1.152943729077882812e-01	1.030939606949065775e+08
1.158755588150289367e-01	9.808635835302521288e+07
1.164596742119171358e-01	9.331880013910798728e+07
1.170467338620447412e-01	8.877995790259061754e+07
1.176367526033045424e-01	8.445903248973338306e+07
1.182297453482464428e-01	8.034571845936991274e+07
1.188257270844599450e-01	7.643019270986372232e+07
1.194247128749480052e-01	7.270308968402260542e+07
1.200267178585053413e-01	6.915547548625050485e+07
1.206317572500973517e-01	6.577883670307854563e+07
1.212398463412437677e-01	6.256505581737423688e+07
1.218510005003937274e-01	5.950639075035718083e+07
1.224652351733266503e-01	5.659546052734789252e+07
1.230825658835237452e-01	5.382523544318643212e+07
1.237030082325645403e-01	5.118901281673430651e+07
1.243265779005164468e-01	4.868039792075806856e+07
1.249532906463269449e-01	4.629330103940219432e+07
1.255831623082204473e-01	4.402191915020070225e+07
1.262162088040878205e-01	4.186071969563221186e+07
1.268524461318930874e-01	3.980442945073909312e+07
1.274918903700754391e-01	3.784802402609001100e+07
1.281345576779369944e-01	3.598671810392992198e+07
1.287804642960616863e-01	3.421594995564424247e+07
1.294296265467209384e-01	3.253137271563677862e+07
1.300820608342681817e-01	3.092884628789035231e+07
1.307377836455644593e-01	2.940442571989204735e+07
1.313968115503823808e-01	2.795435257430120930e+07
1.320591612018227334e-01	2.657504723159423470e+07
1.327248493367292614e-01	2.526309879480073974e+07
1.333938927761079418e-01	2.401525874670328200e+07
1.340663084255462600e-01	2.282843388115116209e+07
1.347421132756358719e-01	2.169967645974569023e+07
1.354213244023965423e-01	2.062617956568477303e+07
1.361039589677021933e-01	1.960527089441101253e+07
1.367900342197093944e-01	1.863440446558638290e+07
1.374795674932874079e-01	1.771115592093853652e+07
1.381725762104507316e-01	1.683321717834435403e+07
1.388690778807933068e-01	1.599839011666028574e+07
1.395690901019251695e-01	1.520458185398210026e+07
1.402726305599110435e-01	1.444979970179322921e+07
1.409797170297105440e-01	1.373214637675038725e+07
1.416903673756216564e-01	1.304981581774317473e+07
1.424045995517249363e-01	1.240108839389000833e+07
1.431224316023310406e-01	1.178432713777105510e+07
1.438438816624291461e-01	1.119797397180952318e+07
1.445689679581389220e-01	1.064054558890149184e+07
1.452977088071636114e-01	1.011063012721309252e+07
1.460301226192450563e-01	9.606883735244309530e+06
1.467662278966223866e-01	9.128027493835419416e+06
1.475060432344907080e-01	8.672844089843077585e+06
1.482495873214641768e-01	8.240174989239053801e+06
1.489968789400392957e-01	7.828917783393581398e+06
1.497479369670618177e-01	7.438023312336559407e+06
1.505027803741953718e-01	7.066493200768371113e+06
1.512614282283915312e-01	6.713377482496126555e+06
1.520238996923637675e-01	6.377772135158757679e+06
1.527902140250616825e-01	6.058817105569287203e+06
1.535603905821494031e-01	5.755694143286633305e+06
1.543344488164840878e-01	5.467624622653044760e+06
1.551124082785989844e-01	5.193867811895058490e+06
1.558942886171868769e-01	4.933719045171196572e+06
1.566801095795862520e-01	4.686507943386540748e+06
1.574698910122707962e-01	4.451596785894043744e+06
1.582636528613393934e-01	4.228379015481414273e+06
1.590614151730101733e-01	4.016277614627282135e+06
1.598631980941151165e-01	3.814743656015901361e+06
1.606690218725986552e-01	3.623255116367677692e+06
1.614789068580169407e-01	3.441315524291732814e+06
1.622928735020409963e-01	3.268452651441897266e+06
1.631109423589608698e-01	3.104217365668863058e+06
1.639331340861926167e-01	2.948182527284832206e+06
1.647594694447881702e-01	2.799941970270650461e+06
1.655899692999460993e-01	2.659109438782895450e+06
1.664246546215266409e-01	2.525317610276095569e+06
1.672635464845670661e-01	2.398217220479436219e+06
1.681066660698011528e-01	2.277476171464737505e+06
1.689540346641796587e-01	2.162778661401757970e+06
1.698056736613940132e-01	2.053824429410340963e+06
1.706616045624022859e-01	1.950328021301276749e+06
1.715218489759567089e-01	1.852018018392223865e+06
1.723864286191349182e-01	1.758636378203876317e+06
1.732553653178724729e-01	1.669937802512557711e+06
1.741286810074983149e-01	1.585689064728086581e+06
1.750063977332724507e-01	1.505668463681634516e+06
1.758885376509259635e-01	1.429665262510964181e+06
1.767751230272039675e-01	1.357479118458933663e+06
1.776661762404098954e-01	1.288919599576495821e+06
1.785617197809535595e-01	1.223805704723192612e+06
1.794617762519004900e-01	1.161965377399964025e+06
1.803663683695242714e-01	1.103235092136249645e+06
1.812755189638613762e-01	1.047459426652434166e+06
1.821892509792679971e-01	9.944906590402597794e+05
1.831075874749799881e-01	9.441883976651245030e+05
1.840305516256743046e-01	8.964192194720985135e+05
1.849581667220341619e-01	8.510563215202118736e+05
1.858904561713151382e-01	8.079792035712219076e+05
1.868274434979154408e-01	7.670733542718985118e+05
1.877691523439470045e-01	7.282299548639118439e+05
1.887156064698101432e-01	6.913456024823405314e+05
1.896668297547705329e-01	6.563220405738909030e+05
1.906228461975378596e-01	6.230659050495075062e+05
1.915836799168482429e-01	5.914884840858653188e+05
1.925493551520478241e-01	5.615054854628798785e+05
1.935198962636801301e-01	5.330368216876441147e+05
1.944953277340747688e-01	5.060064021597516839e+05
1.954756741679378462e-01	4.803419316238255706e+05
1.964609602929519305e-01	4.559747264851540676e+05
1.974512109603637489e-01	4.328395339906527661e+05
1.984464511455899249e-01	4.108743618221455254e+05
1.994467059488161109e-01	3.900203183832779760e+05
2.004520005956020590e-01	3.702214572926004766e+05
2.014623604374878030e-01	3.514246307335842866e+05
2.024778109526027825e-01	3.335793528634872055e+05
2.034983777462777421e-01	3.166376652818943840e+05
2.045240865516586848e-01	3.005540139766630018e+05
2.055549632303237118e-01	2.852851268082779716e+05
2.065910337729017499e-01	2.707899013980723685e+05
2.076323242996947205e-01	2.570292974172095419e+05
2.086788610613013184e-01	2.439662333950012107e+05
2.097306704392437882e-01	2.315654901163795148e+05
2.107877789465969209e-01	2.197936161076837452e+05
2.118502132286197159e-01	2.086188403003759449e+05
2.129180000633898173e-01	1.980109892665056395e+05
2.139911663624393390e-01	1.879414056918231072e+05
2.150697391713947415e-01	1.783828734950479702e+05
2.161537456706179305e-01	1.693095459016449749e+05
2.172432131758502971e-01	1.606968774050996872e+05
2.183381691388593671e-01	1.525215575744342641e+05
2.194386411480876709e-01	1.447614498869728704e+05
2.205446569293043335e-01	1.373955333900695841e+05
2.216562443462584964e-01	1.304038463194330106e+05
2.227734314013362915e-01	1.237674331658722513e+05
2.238962462362190931e-01	1.174682941816038510e+05
2.250247171325449880e-01	1.114893376785131404e+05
2.261588725125724120e-01	1.058143343879325839e+05
2.272987409398459502e-01	1.004278741019685694e+05
2.284443511198654686e-01	9.531532472900643188e+04
2.295957319007560227e-01	9.046279317795815587e+04
2.307529122739421512e-01	8.585708815824353951e+04
2.319159213748228920e-01	8.148568493375049729e+04
2.330847884834500172e-01	7.733669192654157814e+04
2.342595430252085997e-01	7.339881889962953574e+04
2.354402145714994676e-01	6.966134653451638587e+04
2.366268328404249888e-01	6.611409783240416436e+04
2.378194276974753552e-01	6.274741075871392968e+04
2.390180291562198078e-01	5.955211234821662219e+04
2.402226673789976397e-01	5.651949406094596634e+04
2.414333726776128619e-01	5.364128843506637349e+04
2.426501755140310912e-01	5.090964678830513003e+04
2.438731065010781573e-01	4.831711806546713342e+04
2.451021964031417644e-01	4.585662885766913678e+04
2.463374761368738730e-01	4.352146435524559638e+04
2.475789767718976908e-01	4.130525023361920466e+04
2.488267295315142735e-01	3.920193540896999184e+04
2.500807657934130401e-01	3.720577577954499429e+04
2.513411170903841474e-01	3.531131870009010163e+04
2.526078151110321968e-01	3.351338822471461754e+04
2.538808917004908294e-01	3.180707120157699683e+04
2.551603788611494505e-01	3.018770390045260137e+04
2.564463087533616625e-01	2.865085942604978118e+04
2.577387136961754588e-01	2.719233574827980920e+04
2.590376261680564229e-01	2.580814431148225776e+04
2.603430788076139812e-01	2.449449924134807588e+04
2.616551044143300420e-01	2.324780706196259416e+04
2.629737359492899107e-01	2.206465697672038368e+04
2.642990065359139273e-01	2.094181160518537945e+04
2.656309494606928223e-01	1.987619818291618867e+04
2.669695981739227952e-01	1.886490022283293729e+04
2.683149862904445904e-01	1.790514961762590610e+04
2.696671475903825721e-01	1.699431906666521536e+04
2.710261160198865205e-01	1.612991499621835464e+04
2.723919256918752030e-01	1.530957072487669575e+04
2.737646108867807238e-01	1.453104003886979444e+04
2.751442060532959810e-01	1.379219108465022873e+04
2.765307458091220694e-01	1.309100055454263929e+04
2.779242649417189570e-01	1.242554818871707539e+04
2.793247984090562186e-01	1.179401152004891992e+04
2.807323813403660995e-01	1.119466092158815991e+04
2.821470490368982453e-01	1.062585489561777649e+04
2.835688369726745428e-01	1.008603556094448868e+04
2.849977807952474018e-01	9.573724444683617548e+03
2.864339163264568722e-01	9.087518414890486383e+03
2.878772795631915904e-01	8.626085867668041828e+03
2.893279066781488940e-01	8.188163076022480709e+03
2.907858340205970449e-01	7.772550743861820592e+03
2.922510981171386746e-01	7.378110730138012514e+03
2.937237356724747839e-01	7.003762923096002851e+03
2.952037835701704638e-01	6.648482304952650338e+03
2.966912788734202278e-01	6.311296131351003169e+03
2.981862588258164526e-01	5.991281281472553019e+03
2.996887608521160984e-01	5.687561722932698103e+03
3.011988225590100932e-01	5.399306117214061487e+03
3.027164817358926618e-01	5.125725543514003220e+03
3.042417763556313215e-01	4.866071333856074489e+03
3.057747445753380422e-01	4.619633023220118048e+03
3.073154247371390757e-01	4.385736409706531049e+03
3.088638553689483923e-01	4.163741694703729991e+03
3.104200751852381757e-01	3.953041733950786238e+03
3.119841230877976046e-01	3.753060375011522865e+03
3.135560381665577490e-01	3.563250866386751113e+03
3.151358597002901774e-01	3.383094400796526315e+03
3.167236271574263573e-01	3.212098604550498749e+03
3.183193801968185466e-01	3.049796271714177237e+03
3.199231586685130080e-01	2.895744046621410689e+03
3.215350026145220030e-01	2.749521202757595802e+03
3.231549522695956189e-01	2.610728498297670285e+03
3.247830480619935956e-01	2.478987072443455872e+03
3.264193306142560980e-01	2.353937413402906714e+03
3.280638407439744886e-01	2.235238360047845163e+03
3.297166194645613224e-01	2.122566176822038415e+03
3.313777079860187880e-01	2.015613653817303430e+03
3.330471477157073701e-01	1.914089270136524192e+03
3.347249802591127366e-01	1.817716388834456666e+03
3.364112474206117920e-01	1.726232499340514323e+03
3.381059912042377325e-01	1.639388494062848849e+03
3.398092538144428798e-01	1.556947984649718137e+03
3.415210776568615159e-01	1.478686652688697677e+03
3.432415053390696635e-01	1.404391633633204037e+03
3.449705796713438688e-01	1.333860929774528586e+03
3.467083436674183727e-01	1.266902856906754323e+03
3.484548405452396191e-01	1.203335516779305863e+03
3.502101137277192078e-01	1.142986297533311927e+03
3.519742068434846272e-01	1.085691398638960209e+03
3.537471637276265457e-01	1.031295380850613128e+03
3.555290284224459918e-01	9.796507393706472158e+02
3.573198451781957052e-01	9.306174981873529077e+02
3.591196584538210446e-01	8.840628251588564126e+02
3.609285129176966200e-01	8.398606672731154958e+02
3.627464534483608172e-01	7.978914036186025669e+02
3.645735251352461015e-01	7.580415178664328550e+02
3.664097732794056039e-01	7.202032855182309277e+02
3.682552433942378189e-01	6.842744775307307918e+02
3.701099812062053074e-01	6.501580804197768657e+02
3.719740326555502352e-01	6.177620291266749746e+02
3.738474438970062486e-01	5.869989540892687501e+02
3.757302613006276437e-01	5.577859419088640607e+02
3.776225314520413323e-01	5.300443067743490246e+02
3.795243011537764444e-01	5.036993755868037965e+02
3.814356174255633114e-01	4.786802812497512605e+02
3.833565275051111221e-01	4.549197697668342926e+02
3.852870788488091947e-01	4.323540149346741259e+02
3.872273191324085984e-01	4.109224430483585593e+02
3.891772962517451862e-01	3.905675670770648935e+02
3.911370583237108733e-01	3.712348288805587799e+02
3.931066536911219100e-01	3.528724493330669247e+02
3.950861308817044670e-01	3.354312867142555774e+02
3.970755387282281501e-01	3.188647014874945853e+02
3.990749262076465631e-01	3.031284291104146860e+02
4.010843425530236650e-01	2.881804584226750308e+02
4.031038372187926155e-01	2.739809163465146185e+02
4.051334598841991874e-01	2.604919589939756293e+02
4.071732604541529188e-01	2.476776678917599384e+02
4.092232890598752615e-01	2.355039519286349616e+02
4.112835960595038198e-01	2.239384535904620179e+02
4.133542320398770897e-01	2.129504607648292733e+02
4.154352478122839698e-01	2.025108227598759925e+02
4.175266944203194774e-01	1.925918705608242476e+02
4.196286231355307872e-01	1.831673412070196889e+02
4.217410854592003600e-01	1.742123058268660714e+02
4.238641331228759079e-01	1.657031019533780523e+02
4.259978180888922550e-01	1.576172685196393104e+02
4.281421925508788195e-01	1.499334850001894210e+02
4.302973089342576052e-01	1.426315128733779432e+02
4.324632198967289787e-01	1.356921405615087224e+02
4.346399783287442919e-01	1.290971310706338784e+02
4.368276373539661805e-01	1.228291723089177339e+02
4.390262503297161500e-01	1.168718299073941012e+02
4.412358708474083957e-01	1.112095025166475182e+02
4.434565527329690782e-01	1.058273793209575331e+02
4.456883500472427206e-01	1.007113997893416268e+02
4.479313170863826188e-01	9.584821542431730279e+01
4.501855083822266512e-01	9.122515348242713173e+01
4.524509787026573804e-01	8.683018262554001865e+01
4.547277830519452224e-01	8.265188018971433337e+01
4.570159766712286742e-01	7.867940122218941212e+01
4.593156150382824987e-01	7.490244909166347043e+01
4.616267538685658867e-01	7.131124756452302904e+01
4.639494491150386035e-01	6.789651435457918183e+01
4.662837569686493211e-01	6.464943595877026894e+01
4.686297338592292361e-01	6.156164393141138902e+01
4.709874364416805625e-01	5.862519199339873666e+01
4.733569216489995624e-01	5.583253484929937116e+01
4.757382466045461666e-01	5.317650773601081227e+01
4.781314686948894832e-01	5.065030698575547774e+01
4.805366455451273722e-01	4.824747178156616201e+01
4.829538350154052861e-01	4.596186673600495709e+01
4.853830952042306190e-01	4.378766532405190759e+01
4.878244844550530535e-01	4.171933425149108388e+01
4.902780613428471268e-01	3.975161856382131020e+01
4.927438846901871505e-01	3.787952751629290304e+01
4.952220135501850251e-01	3.609832118158430347e+01
4.977125072218147595e-01	3.440349773984551973e+01
5.002154252439309223e-01	3.279078140963060406e+01
5.027308273864097288e-01	3.125611096560218627e+01
5.052587736692134568e-01	2.979562894273105300e+01
5.077993243391020206e-01	2.840567122025528946e+01
5.103525398907643451e-01	2.708275733194056656e+01
5.129184810574377584e-01	2.582358110377347415e+01
5.154972088017318876e-01	2.462500185992136181e+01
5.180887843327707243e-01	2.348403606889707618e+01
5.206932690978055556e-01	2.239784938700891814e+01
5.233107247721451305e-01	2.136374910215639034e+01
5.259412132770481252e-01	2.037917700778334407e+01
5.285847967706335249e-01	1.944170262499121193e+01
5.312415376378001319e-01	1.854901669130617492e+01
5.339114985081797604e-01	1.769892512097616333e+01
5.365947422467524097e-01	1.688934309197309602e+01
5.392913319438632502e-01	1.611828970699550467e+01
5.420013309328090001e-01	1.538388258957240673e+01
5.447248027803778259e-01	1.468433300113928297e+01
5.474618112771753031e-01	1.401794110827671602e+01
5.502124204543544783e-01	1.338309152301586380e+01
5.529766945744195583e-01	1.277824903745640839e+01
5.557546981218393078e-01	1.220195460099155405e+01
5.585464958188007811e-01	1.165282148757388114e+01
5.613521526170655029e-01	1.112953166816057404e+01
5.641717336747534839e-01	1.063083235917045499e+01
5.670053044308245305e-01	1.015553274480730117e+01
5.698529304805665108e-01	9.702500872384810293e+00
5.727146776891095525e-01	9.270660706458176747e+00
5.755906121306495482e-01	8.858989313681995270e+00
