# Data associated with arXiv:2208.14002
# 
# Scale-free velocity distribution, f(E), of a nfw0-9rhos4e6 dark matter distribution (see Eq. 2.7 and the surrounding discussion)
# 
# Published: 8/25/22, Jack Runburg and Kenny Kiriu, contact: runburg@hawaii.edu
# 
# 
# -----------------------------------------------------------------
# 
# 	 tilde E 		 | 		 tilde f
# 
# -----------------------------------------------------------------
1.368946620424845740e-06	2.731917092714496851e+08
1.394420332386403939e-06	2.630845801465705633e+08
1.420368064666615536e-06	2.530963060968590975e+08
1.446798637828209431e-06	2.432852971213592887e+08
1.473721036562959315e-06	2.338389772400931716e+08
1.501144412745557630e-06	2.246202498926156759e+08
1.529078088544358883e-06	2.157650521594901681e+08
1.557531559589945890e-06	2.072590709545987844e+08
1.586514498202695032e-06	1.990884145944431424e+08
1.616036756680360787e-06	1.912398450541907847e+08
1.646108370646820065e-06	1.837007264681066275e+08
1.676739562463157315e-06	1.764589328224622309e+08
1.707940744702157469e-06	1.695027011628974080e+08
1.739722523687499067e-06	1.628206701114851236e+08
1.772095703098732830e-06	1.564020939778968096e+08
1.805071287643385487e-06	1.502366211477392018e+08
1.838660486797344185e-06	1.443142487778224945e+08
1.872874718614826782e-06	1.386253242826382518e+08
1.907725613609274629e-06	1.331606984601451308e+08
1.943225018706384183e-06	1.279115809774476886e+08
1.979385001270750868e-06	1.228693975043083876e+08
2.016217853207355073e-06	1.180259770977180749e+08
2.053736095139414941e-06	1.133735292856382132e+08
2.091952480663925638e-06	1.089045079647455066e+08
2.130880000686362318e-06	1.046116982231848389e+08
2.170531887836073145e-06	1.004881665971284509e+08
2.210921620963746836e-06	9.652716512711785734e+07
2.252062929722620849e-06	9.272231006448361278e+07
2.293969799234843914e-06	8.906749779786036909e+07
2.336656474844725929e-06	8.555677821367120743e+07
2.380137466960331700e-06	8.218443751127217710e+07
2.424427555985224397e-06	7.894505684880450368e+07
2.469541797341904138e-06	7.583341170547978580e+07
2.515495526588690826e-06	7.284444215685850382e+07
2.562304364631862190e-06	6.997329639475987852e+07
2.609984223034659366e-06	6.721533291586932540e+07
2.658551309425151806e-06	6.456611140496022254e+07
2.708022133004608157e-06	6.202133711409229785e+07
2.758413510158428423e-06	5.957687022471303493e+07
2.809742570171390358e-06	5.722877046633709967e+07
2.862026761049215436e-06	5.497325186610426754e+07
2.915283855448494467e-06	5.280665364100103080e+07
2.969531956716821527e-06	5.072545849485426396e+07
3.024789505045397763e-06	4.872630298961839825e+07
3.081075283735976599e-06	4.680596981550515443e+07
3.138408425584487734e-06	4.496134191112580150e+07
3.196808419383341045e-06	4.318942037732358277e+07
3.256295116544683822e-06	4.148735203642861545e+07
3.316888737846930531e-06	3.985238411227393895e+07
3.378609880306682663e-06	3.828186593268985301e+07
3.441479524178590382e-06	3.677326005788487941e+07
3.505519040085303601e-06	3.532412161378112435e+07
3.570750196280157357e-06	3.393210587085294724e+07
3.637195166044882290e-06	3.259496402881450579e+07
3.704876535224906726e-06	3.131052978839951381e+07
3.773817309904912170e-06	3.007672791010034829e+07
3.844040924227028301e-06	2.889156338633515313e+07
3.915571248354588462e-06	2.775311449157230556e+07
3.988432596583875779e-06	2.665953757634675875e+07
4.062649735606880860e-06	2.560906570704928786e+07
4.138247892927655361e-06	2.460000374423583224e+07
4.215252765435217149e-06	2.363071742682540044e+07
4.293690528135985652e-06	2.269963487599204853e+07
4.373587843048519729e-06	2.180525071382822096e+07
4.454971868263825069e-06	2.094612079545768350e+07
4.537870267174033115e-06	2.012085484741809964e+07
4.622311217872869269e-06	1.932811546602774784e+07
4.708323422730867390e-06	1.856662168587913364e+07
4.795936118148657720e-06	1.783514274977554381e+07
4.885179084491777356e-06	1.713249380650196970e+07
4.976082656210075467e-06	1.645753819615877792e+07
5.068677732145509640e-06	1.580918500534339435e+07
5.162995786031464007e-06	1.518638523212573864e+07
5.259068877187506669e-06	1.458813131010684185e+07
5.356929661412934736e-06	1.401345635200040042e+07
5.456611402082903402e-06	1.346142999730302766e+07
5.558147981451045546e-06	1.293115942875408567e+07
5.661573912162106385e-06	1.242178736796794459e+07
5.766924348978865601e-06	1.193248943398051150e+07
5.874235100726957845e-06	1.146247462424906716e+07
5.983542642462013134e-06	1.101098326489793509e+07
6.094884127862933868e-06	1.057728455300784484e+07
6.208297401855641893e-06	1.016067644771144539e+07
6.323821013471709484e-06	9.760486173112617806e+06
6.441494228945909534e-06	9.376067013374311849e+06
6.561357045057541820e-06	9.006796155648391694e+06
6.683450202719624826e-06	8.652076707321655005e+06
6.807815200820992125e-06	8.311335543819772080e+06
6.934494310325643679e-06	7.984021560674225911e+06
7.063530588634267380e-06	7.669605161099200137e+06
7.194967894212961384e-06	7.367577780976506881e+06
7.328850901493732881e-06	7.077451555199929513e+06
7.465225116052315465e-06	6.798757294846589677e+06
7.604136890067940040e-06	6.531044147122288123e+06
7.745633438070804720e-06	6.273879451401956379e+06
7.889762852982182736e-06	6.026847409655666910e+06
8.036574122452746940e-06	5.789548550347774290e+06
8.186117145504879180e-06	5.561599366647324525e+06
8.338442749484090797e-06	5.342631170700931922e+06
8.493602707325946809e-06	5.132289953340864740e+06
8.651649755143686919e-06	4.930235951034015045e+06
8.812637610143126516e-06	4.736142314954058267e+06
8.976620988870439921e-06	4.549695239424263127e+06
9.143655625799175247e-06	4.370593566756962799e+06
9.313798292263024726e-06	4.198547682987154461e+06
9.487106815740272943e-06	4.033279432404243853e+06
9.663640099497053317e-06	3.874521785181706306e+06
9.843458142595475871e-06	3.722018113828210160e+06
1.002662206027397687e-05	3.575521944028883241e+06
1.021319410470634469e-05	3.434796512771858834e+06
1.040323768614661664e-05	3.299614364753378555e+06
1.059681739446726500e-05	3.169757084408005700e+06
1.079399902109739953e-05	3.045014786797873676e+06
1.099484958136912121e-05	2.925185880078752059e+06
1.119943733727888824e-05	2.810076781983413734e+06
1.140783182067228506e-05	2.699501479194032028e+06
1.162010385685951603e-05	2.593281298839778174e+06
1.183632558866980288e-05	2.491244604387688916e+06
1.205657050095313064e-05	2.393226557977453806e+06
1.228091344553699261e-05	2.299068794353130739e+06
1.250943066664739585e-05	2.208619173099075910e+06
1.274219982680187228e-05	2.121731599419372156e+06
1.297930003318412970e-05	2.038265708622438833e+06
1.322081186450858437e-05	1.958086668547077803e+06
1.346681739838411946e-05	1.881064979015383404e+06
1.371740023918667152e-05	1.807076198810336646e+06
1.397264554644931339e-05	1.736000836112655234e+06
1.423264006378040286e-05	1.667724127465268597e+06
1.449747214831858421e-05	1.602135781298539136e+06
1.476723180073559135e-05	1.539129867918452714e+06
1.504201069579623604e-05	1.478604647011219757e+06
1.532190221348620632e-05	1.420462373037802754e+06
1.560700147071857137e-05	1.364609156679731328e+06
1.589740535362890489e-05	1.310954837766415672e+06
1.619321255047094632e-05	1.259412785926225595e+06
1.649452358512289147e-05	1.209899754724594764e+06
1.680144085121676573e-05	1.162335813954986399e+06
1.711406864690121865e-05	1.116644196415020386e+06
1.743251321025074697e-05	1.072751146433775080e+06
1.775688275533219827e-05	1.030585802734785946e+06
1.808728750894153856e-05	9.900800954607427120e+05
1.842383974802306755e-05	9.511686554951734142e+05
1.876665383778336357e-05	9.137886856618572492e+05
1.911584627051373091e-05	8.778798540289446246e+05
1.947153570513320109e-05	8.433842150798112852e+05
1.983384300746633864e-05	8.102461123409739230e+05
2.020289129126897362e-05	7.784120671832528897e+05
2.057880596001591812e-05	7.478307098833071068e+05
2.096171474946484619e-05	7.184527099323917646e+05
2.135174777101030651e-05	6.902306693586666370e+05
2.174903755584338860e-05	6.631190584713653661e+05
2.215371909993086645e-05	6.370741512166495668e+05
2.256592990982991630e-05	6.120539307201376650e+05
2.298581004935346234e-05	5.880180421138105448e+05
2.341350218710192512e-05	5.649277273978375597e+05
2.384915164487770719e-05	5.427457449435519520e+05
2.429290644699813668e-05	5.214363252242336166e+05
2.474491737052457528e-05	5.009651100308575551e+05
2.520533799642342507e-05	4.812990907157667098e+05
2.567432476167727263e-05	4.624065622384611634e+05
2.615203701236327685e-05	4.442570694362731301e+05
2.663863705771681207e-05	4.268213545202382957e+05
2.713429022519888247e-05	4.100713145745339571e+05
2.763916491658508526e-05	3.939799540424090228e+05
2.815343266509645831e-05	3.785213381640877342e+05
2.867726819358972211e-05	3.636705566436121590e+05
2.921084947382836277e-05	3.494036800288174418e+05
2.975435778685289279e-05	3.356977204488143325e+05
3.030797778447190245e-05	3.225305972422398045e+05
3.087189755189409843e-05	3.098810994132128544e+05
3.144630867152206849e-05	2.977288511139579350e+05
3.203140628793055050e-05	2.860542796668841620e+05
3.262738917404921967e-05	2.748385821807797183e+05
3.323445979857440533e-05	2.640636972292196006e+05
3.385282439463055068e-05	2.537122758683130087e+05
3.448269302970584041e-05	2.437676507451283978e+05
3.512427967688521178e-05	2.342138123244972376e+05
3.577780228740398498e-05	2.250353815613543557e+05
3.644348286454830965e-05	2.162175843490620027e+05
3.712154753892490461e-05	2.077462295956868911e+05
3.781222664512803606e-05	1.996076848568640125e+05
3.851575479982717999e-05	1.917888536843717156e+05
3.923237098130331435e-05	1.842771563468167733e+05
3.996231861045985480e-05	1.770605085407019651e+05
4.070584563333552904e-05	1.701273018418538850e+05
4.146320460514741951e-05	1.634663848960783216e+05
4.223465277589132701e-05	1.570670453885619063e+05
4.302045217753001612e-05	1.509189927351370570e+05
4.382086971279670505e-05	1.450123419769510801e+05
4.463617724564510622e-05	1.393375976603098679e+05
4.546665169337571119e-05	1.338856375945779728e+05
4.631257512046941610e-05	1.286476988459493296e+05
4.717423483416032269e-05	1.236153640920676262e+05
4.805192348177879066e-05	1.187805471393406624e+05
4.894593914989932081e-05	1.141354798384332971e+05
4.985658546532429735e-05	1.096727002890827425e+05
5.078417169793925285e-05	1.053850405327705521e+05
5.172901286547336111e-05	1.012656143999532796e+05
5.269142984020027233e-05	9.730780691985173326e+04
5.367174945761582169e-05	9.350526366057326959e+04
5.467030462712742066e-05	8.985188055009565142e+04
5.568743444479489450e-05	8.634179335346342123e+04
5.672348430815746701e-05	8.296936892930661270e+04
5.777880603318786851e-05	7.972919587130562286e+04
5.885375797341141281e-05	7.661607581087878498e+04
5.994870514123036830e-05	7.362501484080796945e+04
6.106401933149454534e-05	7.075121574655178119e+04
6.220007924735801875e-05	6.799007013615459437e+04
6.335727062846708830e-05	6.533715098745272553e+04
6.453598638151843386e-05	6.278820526258708560e+04
6.573662671323485165e-05	6.033914763876260258e+04
6.695959926580040151e-05	5.798605341103962564e+04
6.820531925480166039e-05	5.572515235498895345e+04
6.947420960972105217e-05	5.355282258567447570e+04
7.076670111702769558e-05	5.146558468485903722e+04
7.208323256591678177e-05	4.946009620174449083e+04
7.342425089674223205e-05	4.753314613096775429e+04
7.479021135219524681e-05	4.568164989680211875e+04
7.618157763127780552e-05	4.390264425312514504e+04
7.759882204612256348e-05	4.219328248782772425e+04
7.904242568171232519e-05	4.055082985245672899e+04
8.051287855855021472e-05	3.897265923655143706e+04
8.201067979833833084e-05	3.745624687861412531e+04
8.353633779271596644e-05	3.599916824881298817e+04
8.509037037511691509e-05	3.459909417496529204e+04
8.667330499580117237e-05	3.325378710681561643e+04
8.828567890012018892e-05	3.196109749398292115e+04
8.992803931007496742e-05	3.071896033389714648e+04
9.160094360922571316e-05	2.952539181726987590e+04
9.330495953101855099e-05	2.837848613491594369e+04
9.504066535058652745e-05	2.727641242314625197e+04
9.680865008009321645e-05	2.621741181483179753e+04
9.860951366768125651e-05	2.519979458898073790e+04
1.004438672000925928e-04	2.422193745032416336e+04
1.023123331090284173e-04	2.328228093276327127e+04
1.042155453813144411e-04	2.237932687554776203e+04
1.061541497729465546e-04	2.151163597706370638e+04
1.081288040270806511e-04	2.067782557057440499e+04
1.101401780960462241e-04	1.987656727055336887e+04
1.121889543674510243e-04	1.910658492892666618e+04
1.142758278944555183e-04	1.836665254987134904e+04
1.164015066302926489e-04	1.765559232394572246e+04
1.185667116671076666e-04	1.697227270921177842e+04
1.207721774792026279e-04	1.631560662112641330e+04
1.230186521707583359e-04	1.568454969544704727e+04
1.253068977281241749e-04	1.507809861325352540e+04
1.276376902767504705e-04	1.449528945102112630e+04
1.300118203428548972e-04	1.393519614837584049e+04
1.324300931199062672e-04	1.339692903326055421e+04
1.348933287400115285e-04	1.287963337427237639e+04
1.374023625503019105e-04	1.238248800630240112e+04
1.399580453943996420e-04	1.190470401499982108e+04
1.425612438990682927e-04	1.144552346574398143e+04
1.452128407661317151e-04	1.100421817109010590e+04
1.479137350697638245e-04	1.058008858666833476e+04
1.506648425592438162e-04	1.017246255694145293e+04
1.534670959672772153e-04	9.780694362138123324e+03
1.563214453239841328e-04	9.404163621101881290e+03
1.592288582766551513e-04	9.042274299481245180e+03
1.621903204153851328e-04	8.694453757968336504e+03
1.652068356046844486e-04	8.360151825958744666e+03
1.682794263211820167e-04	8.038839930452119916e+03
1.714091339975274818e-04	7.730010237050331853e+03
1.745970193726057015e-04	7.433174830089483294e+03
1.778441628481787625e-04	7.147864938930191784e+03
1.811516648520681758e-04	6.873630185995541069e+03
1.845206462080035590e-04	6.610037854175433495e+03
1.879522485122478274e-04	6.356672202459759319e+03
1.914476345171306764e-04	6.113133788650215138e+03
1.950079885216098627e-04	5.879038839356409881e+03
1.986345167689888434e-04	5.654018626519866302e+03
2.023284478519216903e-04	5.437718878686833705e+03
2.060910331248307211e-04	5.229799214883426430e+03
2.099235471238807492e-04	5.029932588108948949e+03
2.138272879946349870e-04	4.837804781821694633e+03
2.178035779275392953e-04	4.653113889144966379e+03
2.218537636013712805e-04	4.475569830000507864e+03
2.259792166347996572e-04	4.304893890855784775e+03
2.301813340461980216e-04	4.140818282586677014e+03
2.344615387218642276e-04	3.983085700145893497e+03
2.388212798927917058e-04	3.831448924790099227e+03
2.432620336201510726e-04	3.685670409935477892e+03
2.477853032896357968e-04	3.545521916376171703e+03
2.523926201148308959e-04	3.410784145432147852e+03
2.570855436497664222e-04	3.281246376362429601e+03
2.618656623108204053e-04	3.156706140642660102e+03
2.667345939081404113e-04	3.036968896679652516e+03
2.716939861867483552e-04	2.921847713455757003e+03
2.767455173775084103e-04	2.811162976139937655e+03
2.818908967581287730e-04	2.704742096085591129e+03
2.871318652243805172e-04	2.602419238032609428e+03
2.924701958717117775e-04	2.504035052357579389e+03
2.979076945874440719e-04	2.409436420980675393e+03
3.034462006537413654e-04	2.318476214956016065e+03
3.090875873615398753e-04	2.231013056659417089e+03
3.148337626356334496e-04	2.146911095596975429e+03
3.206866696711176980e-04	2.066039791649013296e+03
3.266482875813873812e-04	1.988273705973726464e+03
3.327206320578969599e-04	1.913492301141825465e+03
3.389057560418909528e-04	1.841579750191491712e+03
3.452057504083147640e-04	1.772424749519689158e+03
3.516227446621243377e-04	1.705920341609883963e+03
3.581589076472086624e-04	1.641963749083113498e+03
3.648164482681542161e-04	1.580456205085869442e+03
3.715976162250727460e-04	1.521302798793245984e+03
3.785047027617233196e-04	1.464412323783449438e+03
3.855400414271650008e-04	1.409697132697998541e+03
3.927060088511745580e-04	1.357072999277025701e+03
4.000050255336758576e-04	1.306458981112250058e+03
4.074395566484184943e-04	1.257777293834356897e+03
4.150121128611643467e-04	1.210953187229860760e+03
4.227252511626319680e-04	1.165914823133010941e+03
4.305815757164543575e-04	1.122593166058695033e+03
4.385837387224181282e-04	1.080921869879155793e+03
4.467344412952442795e-04	1.040837174531278151e+03
4.550364343591887790e-04	1.002277802700503003e+03
4.634925195587279363e-04	9.651848660064590604e+02
4.721055501856208651e-04	9.295017665083785232e+02
4.808784321226224740e-04	8.951741124320591325e+02
4.898141248041411799e-04	8.621496278199351764e+02
4.989156421941344077e-04	8.303780715943694304e+02
5.081860537815376978e-04	7.998111574484121320e+02
5.176284855935350121e-04	7.704024776258287375e+02
5.272461212269690962e-04	7.421074296943762647e+02
5.370422028982145589e-04	7.148831433063700160e+02
5.470200325118252131e-04	6.886884177037463814e+02
5.571829727482796374e-04	6.634836514885867018e+02
5.675344481711514129e-04	6.392307821814372346e+02
5.780779463540384024e-04	6.158932265030618964e+02
5.888170190275874996e-04	5.934358210879016724e+02
5.997552832469602762e-04	5.718247684410670217e+02
6.108964225800811573e-04	5.510275825864837316e+02
6.222441883170317690e-04	5.310130383920708255e+02
6.338024007009433877e-04	5.117511219583604998e+02
6.455749501807529767e-04	4.932129837528136136e+02
6.575657986861956680e-04	4.753708925091538049e+02
6.697789809254063283e-04	4.581981920656300531e+02
6.822186057055162943e-04	4.416692594018169302e+02
6.948888572766222542e-04	4.257594637328531917e+02
7.077939966995351519e-04	4.104451290096167781e+02
7.209383632376917305e-04	3.957034950779432734e+02
7.343263757736500329e-04	3.815126829966161495e+02
7.479625342505609106e-04	3.678516606063889185e+02
7.618514212852777346e-04	3.547002091866893352e+02
7.759977030969093109e-04	3.420388920427295716e+02
7.904061318435825004e-04	3.298490236904775088e+02
8.050815466403369713e-04	3.181126407369619074e+02
8.200288752598001735e-04	3.068124739793900062e+02
8.352531357325414111e-04	2.959319209070773127e+02
8.507594379754576360e-04	2.854550200660310111e+02
8.665529854486483897e-04	2.753664260535633161e+02
8.826390768412532535e-04	2.656513854829663046e+02
8.990231077867087998e-04	2.562957138909844730e+02
9.157105726079269210e-04	2.472857736156299779e+02
9.327070660928620449e-04	2.386084526714601282e+02
9.500182853009686785e-04	2.302511440746464189e+02
9.676500314010459550e-04	2.222017263100850073e+02
9.856082115409746380e-04	2.144485447449405626e+02
1.003898840749865590e-03	2.069803926503776950e+02
1.022528043873122128e-03	1.997864949338829206e+02
1.041502057540964754e-03	1.928564903148823930e+02
1.060827232170934902e-03	1.861804159214968593e+02
1.080510034004923681e-03	1.797486916199357552e+02
1.100557047181268929e-03	1.735521050896892348e+02
1.120974975842478714e-03	1.675817975467398639e+02
1.141770646279135527e-03	1.618292503761651346e+02
1.162951009110557753e-03	1.562862712028722569e+02
1.184523141502774601e-03	1.509449819734708456e+02
1.206494249424415596e-03	1.457978064095519528e+02
1.228871669941093356e-03	1.408374583245420695e+02
1.251662873548868614e-03	1.360569305064422281e+02
1.274875466547410047e-03	1.314494838161284349e+02
1.298517193453445004e-03	1.270086367422115359e+02
1.322595939455137792e-03	1.227281556473235753e+02
1.347119732907979452e-03	1.186020449657486324e+02
1.372096747872861896e-03	1.146245380638061988e+02
1.397535306696941161e-03	1.107900883744591880e+02
1.423443882637944434e-03	1.070933609491857652e+02
1.449831102532564853e-03	1.035292241741977364e+02
1.476705749509604152e-03	1.000927420463374062e+02
1.504076765748526678e-03	9.677916639622669948e+01
1.531953255284076824e-03	9.358392988647113953e+01
1.560344486857658756e-03	9.050263893877152555e+01
1.589259896958824907e-03	8.753106690231656728e+01
1.618709092221374494e-03	8.466514782257507932e+01
1.648701853218088442e-03	8.190097001408874178e+01
1.679248136990073303e-03	7.923477042090904376e+01
1.710358080267341532e-03	7.666292857210126499e+01
1.742042002615204130e-03	7.418196128982400239e+01
1.774310409632329872e-03	7.178851729812870985e+01
1.807173996201168241e-03	6.947937220268664760e+01
