# Data associated with arXiv:2208.14002
# 
# Scale-free J-factor angular distribution, J_S(theta), of a nfw0-9rhos4e6 dark matter distribution (see Eq. 2.4 and the surrounding discussion)
# 
# Published: 8/25/22, Jack Runburg and Kenny Kiriu, contact: runburg@hawaii.edu
# 
# 
# -----------------------------------------------------------------
# 
# 	 tilde theta 		 | 	 tilde J s-wave 		 | 	 tilde J p-wave 		 | 	 tilde J d-wave 		 | 	 tilde J sommerfeld 
# 
# -----------------------------------------------------------------
1.000000000000000021e-03	2.292802162093784500e+04	1.757561912930830658e+03	2.435135196917490248e+03	3.521298544576100539e+05
1.021192151037671062e-03	2.268701417470560045e+04	1.753611977723323889e+03	2.432582270004121256e+03	3.465988510508182808e+05
1.042833409340945643e-03	2.244067672516076345e+04	1.749565166048414767e+03	2.429966003083108262e+03	3.409520171501369914e+05
1.064933292458827233e-03	2.218905205585728618e+04	1.745421178710732420e+03	2.427286133175706709e+03	3.351910463613801403e+05
1.087501519637659123e-03	2.193220562261010855e+04	1.741180002142646117e+03	2.424542578082889122e+03	3.293182215166375972e+05
1.110548016095517111e-03	2.167022929864970138e+04	1.736841963510318692e+03	2.421735472448687233e+03	3.233365080409829388e+05
1.134082917387199208e-03	2.140324595220019182e+04	1.732407799977638433e+03	2.418865213386949108e+03	3.172496672323615057e+05
1.158116573861711456e-03	2.113141515778221947e+04	1.727878748001968461e+03	2.415932519735539245e+03	3.110623963010959560e+05
1.182659555214217667e-03	2.085494051017563834e+04	1.723256662156855782e+03	2.412938511544223275e+03	3.047805056407543016e+05
1.207722655134462354e-03	2.057407931004963393e+04	1.718544179668004517e+03	2.409884821118786476e+03	2.984111501778812963e+05
1.233316896053688856e-03	2.028915596544681466e+04	1.713744960079566454e+03	2.406773756304005474e+03	2.919631436465855222e+05
1.259453533992170365e-03	2.000058165269837264e+04	1.708864057886853743e+03	2.403608556861009674e+03	2.854474091911523137e+05
1.286144063509461061e-03	1.970888556298728508e+04	1.703908553756675019e+03	2.400393833055012237e+03	2.788776756309612538e+05
1.313400222759557485e-03	1.941477049178830202e+04	1.698888755558824869e+03	2.397136408050034333e+03	2.722716754658661666e+05
1.341233998653187541e-03	1.911922969034977723e+04	1.693820897119800520e+03	2.393847226818297713e+03	2.656535701660393388e+05
1.369657632129505243e-03	1.882386860791591243e+04	1.688735034331759152e+03	2.390546980021676518e+03	2.590603729732328793e+05
1.398683623539492566e-03	1.853244412599968200e+04	1.683714691306382292e+03	2.387294480231158104e+03	2.525716132800307823e+05
1.428324738143458596e-03	1.823563211135723759e+04	1.678493508405531657e+03	2.383897400933095923e+03	2.460229672393046203e+05
1.458594011725036863e-03	1.793924641756367782e+04	1.673170356209929423e+03	2.380422530792862290e+03	2.395538069785910193e+05
1.489504756324154782e-03	1.764010980281556476e+04	1.667636747609759368e+03	2.376789879183428184e+03	2.331149479301318061e+05
1.521070566091505720e-03	1.734915469397810375e+04	1.662189193555937663e+03	2.373212584816400067e+03	2.269081026702912932e+05
1.553305323267072666e-03	1.706437379367160611e+04	1.656779962625314965e+03	2.369656606733241460e+03	2.208907052836889052e+05
1.586223204285366938e-03	1.678017064693521752e+04	1.651251417125338321e+03	2.366007544269576101e+03	2.149596588368150115e+05
1.619838686010041055e-03	1.650075870104364731e+04	1.645721647809746173e+03	2.362350530957221963e+03	2.091896429854493472e+05
1.654166552100628336e-03	1.622604036226894095e+04	1.640190535783596943e+03	2.358685418674067478e+03	2.035760514873792708e+05
1.689221899514206692e-03	1.595582037348144149e+04	1.634656785048460506e+03	2.355011334890623402e+03	1.981115269947115448e+05
1.725020145144853453e-03	1.569006373050472575e+04	1.629120921925959919e+03	2.351328528814550737e+03	1.927930745038733876e+05
1.761577032603788440e-03	1.542879000265629838e+04	1.623583962909400952e+03	2.347637662397239183e+03	1.876194531234893657e+05
1.798908639143220224e-03	1.517190117532851036e+04	1.618045550959182037e+03	2.343938524152755690e+03	1.825856360881022410e+05
1.837031382726912916e-03	1.491921930209017955e+04	1.612504439996870133e+03	2.340230267495676799e+03	1.776853855156859208e+05
1.875962029250603357e-03	1.467071194586888669e+04	1.606961180674776642e+03	2.336513146167818377e+03	1.729161069709711883e+05
1.915717699915417882e-03	1.442639899410589896e+04	1.601417009376870055e+03	2.332787851288615002e+03	1.682763779704872868e+05
1.956315878757565116e-03	1.418618258393636643e+04	1.595871662367311956e+03	2.329054129082982854e+03	1.637622015241006739e+05
1.997774420337589726e-03	1.394990061124985914e+04	1.590323959647960237e+03	2.325311160866171576e+03	1.593678470735613955e+05
2.040111557592579582e-03	1.371752302887434053e+04	1.584774445213188756e+03	2.321559203534514381e+03	1.550911057834479434e+05
2.083345909854779961e-03	1.348906984476077014e+04	1.579224366105817580e+03	2.317798965381743528e+03	1.509306612843619660e+05
2.127496491040134757e-03	1.326444385042756403e+04	1.573673144587940214e+03	2.314030122847406801e+03	1.468827641284619458e+05
2.172582718010372237e-03	1.304349743309535188e+04	1.568119509022792499e+03	2.310251872725382782e+03	1.429423267007971590e+05
2.218624419112281976e-03	1.282620278810773743e+04	1.562564013552594361e+03	2.306464475773475442e+03	1.391070663031190343e+05
2.265641842897974604e-03	1.261257982035568784e+04	1.557007959971810578e+03	2.302668660705385264e+03	1.353762495970478631e+05
2.313655667029933423e-03	1.240253246049529480e+04	1.551450908828644970e+03	2.298864065064027727e+03	1.317460337817896798e+05
2.362687007374795686e-03	1.219592632843940555e+04	1.545891792420179399e+03	2.295049922691528536e+03	1.282122966049999523e+05
2.412757427289825233e-03	1.199273567571362946e+04	1.540331183396106326e+03	2.291226499623734071e+03	1.247730082705172244e+05
2.463888947106213784e-03	1.179298025954549666e+04	1.534770395267452386e+03	2.287394540203486940e+03	1.214274544504821824e+05
2.516104053813336943e-03	1.159656541531211224e+04	1.529208859152601917e+03	2.283553624911536190e+03	1.181721801771372702e+05
2.569425710948245768e-03	1.140336889299995346e+04	1.523645309802713200e+03	2.279702993547805818e+03	1.150032891170988296e+05
2.623877368694733318e-03	1.121336686118134276e+04	1.518080214825732583e+03	2.275842905523181344e+03	1.119192576284100796e+05
2.679482974196439188e-03	1.102657878601965785e+04	1.512514907315201071e+03	2.271974121133418521e+03	1.089190113442297443e+05
2.736266982088478034e-03	1.084291174004067580e+04	1.506948806194514873e+03	2.268096171859275273e+03	1.059997438205510553e+05
2.794254365252289707e-03	1.066225455074893762e+04	1.501380943727112253e+03	2.264208344694533935e+03	1.031578942003767879e+05
2.853470625798387814e-03	1.048458517435045542e+04	1.495811902735743843e+03	2.260310914035018413e+03	1.003921097255461646e+05
2.913941806281861776e-03	1.030992267422176701e+04	1.490243068275252426e+03	2.256404659691241704e+03	9.770165451088242116e+04
2.975694501155571117e-03	1.013817612619751526e+04	1.484673761548861421e+03	2.252489056787045229e+03	9.508375368332969083e+04
3.038755868466027146e-03	9.969244474987015565e+03	1.479102949211686791e+03	2.248563408020958377e+03	9.253539008948137052e+04
3.103153641797168783e-03	9.803107340185935755e+03	1.473530983856053581e+03	2.244627968284801227e+03	9.005509373049420537e+04
3.168916142467233243e-03	9.639783295267261565e+03	1.467959173278248045e+03	2.240683522342864762e+03	8.764245802364325209e+04
3.236072291984112663e-03	9.479183634482407797e+03	1.462386792639593978e+03	2.236729495127465725e+03	8.529470292555131891e+04
3.304651624764658874e-03	9.321216541918718576e+03	1.456812993505343456e+03	2.232765228712551561e+03	8.300928012975414458e+04
3.374684301123556836e-03	9.165863180788917816e+03	1.451238365778930756e+03	2.228791004586758390e+03	8.078499254956212826e+04
3.446201120537424525e-03	9.013141571868540268e+03	1.445664313347291454e+03	2.224807631139480691e+03	7.862132455204994767e+04
3.519233535190044709e-03	8.862965393919117560e+03	1.440090050009180459e+03	2.220814480757106139e+03	7.651592261459842848e+04
3.593813663804625805e-03	8.715251267720943360e+03	1.434514746527333500e+03	2.216810919831131741e+03	7.446642723088630009e+04
3.669974305769219299e-03	8.569981790965146502e+03	1.428938768682204000e+03	2.212797207662506025e+03	7.247178064068806998e+04
3.747748955561452412e-03	8.427174378050511223e+03	1.423363353155964205e+03	2.208774146125638708e+03	7.053141715304016543e+04
3.827171817478984984e-03	8.286745226511889996e+03	1.417787622857955512e+03	2.204741050609201466e+03	6.864324402032728540e+04
3.908277820682117681e-03	8.148618657024038839e+03	1.412210826859660756e+03	2.200697315131451887e+03	6.680523410234927724e+04
3.991102634555192957e-03	8.012778605411980607e+03	1.406633579154185099e+03	2.196643230449435578e+03	6.501633210930909263e+04
4.075682684393532908e-03	7.879241820776946952e+03	1.401057304067623363e+03	2.192579631246999270e+03	6.327626684960413695e+04
4.162055167422817371e-03	7.747927140053716357e+03	1.395481071691654961e+03	2.188505783447578779e+03	6.158291803670895024e+04
4.250258069157961290e-03	7.618765902653780358e+03	1.389904200968967189e+03	2.184421111834737530e+03	5.993461512494420458e+04
4.340330180108637088e-03	7.491743269342218809e+03	1.384327210338484747e+03	2.180325899082040451e+03	5.833038064847169881e+04
4.432311112838861061e-03	7.366875347725351276e+03	1.378751224891783068e+03	2.176220952471059263e+03	5.676988231005171838e+04
4.526241319388085715e-03	7.244083633958148312e+03	1.373175191600715152e+03	2.172105476489382909e+03	5.525123128494520643e+04
4.622162109061505458e-03	7.123305886945244310e+03	1.367598482863293611e+03	2.167978923138957725e+03	5.377287836782624800e+04
4.720115666597336779e-03	7.004528427754398763e+03	1.362021726438975975e+03	2.163841592277838572e+03	5.233415965458864957e+04
4.820145070719144588e-03	6.887766626316190013e+03	1.356446381349031299e+03	2.159694346225860045e+03	5.093462165041303524e+04
4.922294313081310678e-03	6.772944763549051459e+03	1.350871382845890139e+03	2.155536342925488952e+03	4.957268360847348231e+04
5.026608317615998724e-03	6.660006426489415389e+03	1.345296140428214585e+03	2.151367059588557822e+03	4.824689225374137459e+04
5.133132960290130720e-03	6.548939008536107394e+03	1.339721270605539303e+03	2.147186797742044291e+03	4.695664615127526486e+04
5.241915089281041530e-03	6.439757144942384912e+03	1.334147931948260975e+03	2.142996384136380129e+03	4.570154223273897514e+04
5.353002545579732367e-03	6.332387913632933305e+03	1.328574839811199581e+03	2.138794899000949954e+03	4.448003880343422497e+04
5.466444184030696055e-03	6.226780216992799978e+03	1.323001462691104052e+03	2.134581845850579157e+03	4.329097382556927187e+04
5.582289894817666839e-03	6.122922429372150873e+03	1.317428460766059743e+03	2.130357537102982860e+03	4.213369096825858287e+04
5.700590625404708227e-03	6.020828489057804290e+03	1.311857323912097627e+03	2.126122860136535110e+03	4.100805489249574748e+04
5.821398402942216249e-03	5.920428236679628753e+03	1.306286865311948304e+03	2.121876869293128493e+03	3.991254909810256504e+04
5.944766357147824969e-03	5.821675430966635759e+03	1.300716601239482998e+03	2.117619096580659971e+03	3.884615844754987484e+04
6.070748743672167193e-03	5.724559377496379966e+03	1.295147160896571222e+03	2.113349853274859015e+03	3.780831306722220324e+04
6.199400967959818945e-03	5.629093248301484891e+03	1.289579783128099962e+03	2.109069991285243304e+03	3.679880194460169150e+04
6.330779609615908021e-03	5.535209710416015696e+03	1.284013002722318561e+03	2.104778473759544795e+03	3.581626515675317205e+04
6.464942447289089879e-03	5.442866921903560979e+03	1.278446381738508535e+03	2.100474857542881637e+03	3.485976757185313181e+04
6.601948484081890736e-03	5.352055051119638847e+03	1.272880602683978623e+03	2.096159465617069600e+03	3.392889378041737655e+04
6.741857973499477616e-03	5.262786513669484521e+03	1.267317161717967565e+03	2.091833201275596821e+03	3.302340955330401630e+04
6.884732445948405985e-03	5.174996777473734255e+03	1.261754760491928437e+03	2.087495014317056302e+03	3.214217074945452259e+04
7.030634735796891313e-03	5.088648005354705674e+03	1.256193023126428670e+03	2.083144491731449307e+03	3.128436144321319443e+04
7.179629009008595825e-03	5.003731157033543241e+03	1.250632588395754965e+03	2.078781954025746018e+03	3.044950758964641864e+04
7.331780791361950343e-03	4.920257927001724966e+03	1.245074685941975304e+03	2.074408261715763729e+03	2.963743762326467913e+04
7.487156997267587974e-03	4.838166526161135153e+03	1.239517765995404034e+03	2.070022273787726135e+03	2.884704267826897558e+04
7.645825959196438613e-03	4.757422768077096407e+03	1.233961481539076885e+03	2.065623600107634502e+03	2.807761764122546447e+04
7.807857457731475631e-03	4.678018348002622588e+03	1.228406515384948307e+03	2.061212569631830775e+03	2.732874396290174627e+04
7.973322752256328111e-03	4.599964245905382086e+03	1.222854397822302190e+03	2.056790107134161644e+03	2.660033907559786894e+04
8.142294612294233985e-03	4.523201379538967558e+03	1.217303716144228019e+03	2.052355058049731724e+03	2.589139865882871163e+04
8.314847349511189298e-03	4.447698879978408513e+03	1.211754187643238311e+03	2.047907061470635881e+03	2.520127835786729338e+04
8.491056850397209546e-03	4.373449125104428276e+03	1.206206478849028599e+03	2.043446451369841952e+03	2.452968245362769449e+04
8.671000609640279119e-03	4.300462391698710235e+03	1.200661742790769949e+03	2.038974078576803777e+03	2.387637201156430456e+04
8.854757764207504128e-03	4.228682258400603132e+03	1.195118386579265007e+03	2.034488704002902978e+03	2.324048574650141018e+04
9.042409128148579806e-03	4.158080869884895037e+03	1.189576189699778752e+03	2.029989997557061088e+03	2.262145588130241595e+04
9.234037228136720080e-03	4.088651238756437579e+03	1.184035853074217584e+03	2.025478303477105328e+03	2.201899566232398865e+04
9.429726339762870002e-03	4.020402948178980296e+03	1.178498896278290431e+03	2.020954555987064850e+03	2.143295893189650087e+04
9.629562524599030379e-03	3.953282189123974149e+03	1.172963835266741398e+03	2.016417504540176651e+03	2.086256423844896926e+04
9.833633668047030499e-03	3.887263839860788266e+03	1.167430469742290825e+03	2.011866839579123962e+03	2.030734572834655773e+04
1.004202951798940403e-02	3.822341501584424350e+03	1.161899348627249537e+03	2.007302873979350125e+03	1.976696520867499203e+04
1.025484172425938229e-02	3.758524082931189241e+03	1.156371666474577296e+03	2.002726470960074266e+03	1.924134943239573477e+04
1.047216387894729824e-02	3.695760324724146813e+03	1.150845821112559861e+03	1.998136306260441415e+03	1.872969899315661678e+04
1.069409155756119272e-02	3.634027586233048623e+03	1.145321687336676177e+03	1.993532100139015256e+03	1.823162672150932121e+04
1.092072236105970547e-02	3.573320015152485666e+03	1.139799976780110001e+03	1.988914205133539099e+03	1.774687271015847728e+04
1.115215595877575537e-02	3.513645862447770469e+03	1.134282228856492338e+03	1.984283576146834548e+03	1.727535495944464856e+04
1.138849413224978825e-02	3.454956355671526580e+03	1.128766866012294713e+03	1.979638865666021957e+03	1.681639291431232778e+04
1.162984081999205582e-02	3.397231102970560187e+03	1.123253731063362466e+03	1.974979803228138053e+03	1.636961014966105904e+04
1.187630216319339981e-02	3.340464756022185611e+03	1.117743184184942265e+03	1.970306645282311138e+03	1.593480326853024053e+04
1.212798655240480798e-02	3.284664936856041550e+03	1.112236619256198765e+03	1.965620304951535445e+03	1.551182628696391293e+04
1.238500467520621366e-02	3.229785282252500565e+03	1.106732386220622857e+03	1.960919373669737979e+03	1.510010488154789164e+04
1.264746956488544717e-02	3.175807440728203346e+03	1.101230464060716258e+03	1.956203634740053303e+03	1.469929391661144655e+04
1.291549665014883955e-02	3.122726535122578298e+03	1.095731606887655516e+03	1.951473459034773896e+03	1.430921413275089799e+04
1.318920380588532899e-02	3.070549569089158922e+03	1.090237340282801824e+03	1.946729803465038685e+03	1.392977704816617370e+04
1.346871140500627631e-02	3.019232526852340015e+03	1.084745965490560593e+03	1.941971213771823614e+03	1.356042959594822969e+04
1.375414237138396570e-02	2.968758901605957362e+03	1.079257140141390664e+03	1.937197385558295991e+03	1.320087805918679260e+04
1.404562223391196511e-02	2.919124250680089517e+03	1.073771402061805702e+03	1.932408622582971020e+03	1.285092057035758626e+04
1.434327918171109106e-02	2.870334987125761927e+03	1.068290286244700837e+03	1.927605886658858481e+03	1.251052530882068640e+04
1.464724412050539583e-02	2.822349363178547719e+03	1.062812081879097832e+03	1.922787681324881078e+03	1.217915547217163294e+04
1.495765073019278586e-02	2.775152542668034584e+03	1.057336842809804011e+03	1.917953839479033149e+03	1.185657282038098128e+04
1.527463552363575450e-02	2.728740486392616731e+03	1.051865354888052252e+03	1.913104754116583308e+03	1.154262710186159165e+04
1.559833790669801906e-02	2.683119037708392625e+03	1.046399076474681806e+03	1.908241367243812192e+03	1.123724901336257062e+04
1.592890023955338338e-02	2.638248642526737967e+03	1.040935908775073358e+03	1.903362007697199488e+03	1.093996450862283564e+04
1.626646789929399317e-02	2.594115974666912280e+03	1.035475746875857112e+03	1.898466462401546551e+03	1.065054052575724199e+04
1.661118934386526108e-02	2.550717368063600588e+03	1.030019371681863504e+03	1.893555128738176109e+03	1.036886197202011863e+04
1.696321617735579643e-02	2.508058122044058564e+03	1.024568327356564396e+03	1.888628977519447517e+03	1.009485512620915142e+04
1.732270321667098503e-02	2.466100796601586353e+03	1.019120814854667969e+03	1.883686409866565100e+03	9.828120241196300412e+03
1.768980855961942850e-02	2.424833431044851750e+03	1.013676996534596697e+03	1.878727328119641697e+03	9.568460265161480493e+03
1.806469365444235767e-02	2.384252711646828629e+03	1.008237596028748499e+03	1.873752115488895470e+03	9.315746617741668160e+03
1.844752337081655841e-02	2.344363395460274205e+03	1.002803647749610036e+03	1.868761547663106739e+03	9.069910061020791545e+03
1.883846607236187159e-02	2.305130101039141664e+03	9.973732444657306360e+02	1.863753938300771324e+03	8.830573154892601451e+03
1.923769369068539445e-02	2.266542092774625871e+03	9.919465753471486096e+02	1.858729202517134581e+03	8.597573701645253095e+03
1.964538180099485026e-02	2.228596371820071454e+03	9.865244647693318711e+02	1.853687765861433490e+03	8.370792841401465921e+03
2.006170969931423895e-02	2.191297213710148299e+03	9.811084213304327477e+02	1.848630595825938144e+03	8.150206085022624393e+03
2.048686048133601528e-02	2.154611180046175377e+03	9.756966277699521015e+02	1.843556028594851568e+03	7.935459938325723670e+03
2.092102112294418406e-02	2.118528652664336278e+03	9.702889596545477389e+02	1.838463863614267211e+03	7.726395679184857727e+03
2.136438256244391209e-02	2.083046929703536534e+03	9.648859791139668687e+02	1.833354416200716969e+03	7.522915859710748009e+03
2.181713978453380873e-02	2.048169809790108957e+03	9.594891034106707366e+02	1.828228606717430011e+03	7.324965240925885155e+03
2.227949190605761978e-02	2.013865739214767927e+03	9.540965237233443759e+02	1.823084736193776962e+03	7.132247412254823757e+03
2.275164226357336353e-02	1.980126106811301952e+03	9.487085073819980607e+02	1.817922779540108422e+03	6.944624748405988612e+03
2.323379850277806913e-02	1.946948469849162166e+03	9.433259081681233056e+02	1.812743186043745027e+03	6.762027209892713472e+03
2.372617266982774559e-02	1.914336186539450182e+03	9.379500002482736818e+02	1.807546815560674759e+03	6.584395631568979297e+03
2.422898130459259780e-02	1.882259509346541790e+03	9.325784848517345154e+02	1.802331708010206057e+03	6.411450716414688031e+03
2.474244553588843265e-02	1.850710726037576933e+03	9.272116293573387793e+02	1.797097851601240563e+03	6.243078587590349343e+03
2.526679117872631872e-02	1.819687653640223289e+03	9.218503108693732884e+02	1.791845719844044197e+03	6.079198282735322209e+03
