# Data associated with arXiv:2208.14002
# 
# Scale-free J-factor angular distribution, J_S(theta), of a nfw1-7rhos4e5 dark matter distribution (see Eq. 2.4 and the surrounding discussion)
# 
# Published: 8/25/22, Jack Runburg and Kenny Kiriu, contact: runburg@hawaii.edu
# 
# 
# -----------------------------------------------------------------
# 
# 	 tilde theta 		 | 	 tilde J s-wave 		 | 	 tilde J p-wave 		 | 	 tilde J d-wave 		 | 	 tilde J sommerfeld 
# 
# -----------------------------------------------------------------
1.000000000000000021e-03	1.620559561078225586e+12	2.354250878983915710e+11	1.020604662455174255e+11	6.532749792161177734e+12
1.021192151037671062e-03	1.580629313370390137e+12	2.304880181355063171e+11	1.005146508325848999e+11	6.362379206995958984e+12
1.042833409340945643e-03	1.539944290577838623e+12	2.254538029690604553e+11	9.893660037363018799e+10	6.188841135496453125e+12
1.064933292458827233e-03	1.498525944283253906e+12	2.203246581329834900e+11	9.732680492433560181e+10	6.012233191850498047e+12
1.087501519637659123e-03	1.456400938382690674e+12	2.151033977100174561e+11	9.568592120607708740e+10	5.832675881173197266e+12
1.110548016095517111e-03	1.413601942904472656e+12	2.097935263437271423e+11	9.401479900807919312e+10	5.650316072202656250e+12
1.134082917387199208e-03	1.370168590892246338e+12	2.043993505998366394e+11	9.231451322392427063e+10	5.465331180868571289e+12
1.158116573861711456e-03	1.326148651061332520e+12	1.989261157929933472e+11	9.058640345796507263e+10	5.277934292882041016e+12
1.182659555214217667e-03	1.281599494847520508e+12	1.933801777831166992e+11	8.883212416011680603e+10	5.088380564532208984e+12
1.207722655134462354e-03	1.236589980651512451e+12	1.877692247453718567e+11	8.705371004469009399e+10	4.896975429381853516e+12
1.233316896053688856e-03	1.191202958448363281e+12	1.821025740531436157e+11	8.525366492740841675e+10	4.704085479653899414e+12
1.259453533992170365e-03	1.145538756428865234e+12	1.763915896967868347e+11	8.343508902111218262e+10	4.510153559867989258e+12
1.286144063509461061e-03	1.099720358383343262e+12	1.706503107878400879e+11	8.160187544036105347e+10	4.315721065024108887e+12
1.313400222759557485e-03	1.053901854821655151e+12	1.648964973236030273e+11	7.975904782743408203e+10	4.121464074506092285e+12
1.341233998653187541e-03	1.008284437951516846e+12	1.591536609182985229e+11	7.791344252699638367e+10	3.928261054965549805e+12
1.369657632129505243e-03	9.631554874083990479e+11	1.534561904133157959e+11	7.607551082670484924e+10	3.737356124308732422e+12
1.398683623539492566e-03	9.190543831942493896e+11	1.478718992386643372e+11	7.426762117630451965e+10	3.551040982986788086e+12
1.428324738143458596e-03	8.752859404070866699e+11	1.422929327488724365e+11	7.244412085732920837e+10	3.366633024845078125e+12
1.458594011725036863e-03	8.330037116768626709e+11	1.368540523008382568e+11	7.064448607941218567e+10	3.189164948829871094e+12
1.489504756324154782e-03	7.920776154202835693e+11	1.315298174438075409e+11	6.885515884136721802e+10	3.018222558694044922e+12
1.521070566091505720e-03	7.534565847380560303e+11	1.264601605329709167e+11	6.713201089171589661e+10	2.857570493450616211e+12
1.553305323267072666e-03	7.168247236110400391e+11	1.216070868503463593e+11	6.546292867079960632e+10	2.705837686447050781e+12
1.586223204285366938e-03	6.816264804254661865e+11	1.168944378175734863e+11	6.381890219432901764e+10	2.560737616432955566e+12
1.619838686010041055e-03	6.481712789144660645e+11	1.123707486359249268e+11	6.222055809985097504e+10	2.423434345131710938e+12
1.654166552100628336e-03	6.163687365071798096e+11	1.080282178193548279e+11	6.066651921612906647e+10	2.293504021322567871e+12
1.689221899514206692e-03	5.861107003901207275e+11	1.038559538923546143e+11	5.915445455189339447e+10	2.170421964272444824e+12
1.725020145144853453e-03	5.573308338618731689e+11	9.984844906594282532e+10	5.768349749699562836e+10	2.053886767648570068e+12
1.761577032603788440e-03	5.299767433952502441e+11	9.600112214396423340e+10	5.625301506169031525e+10	1.943620425386300537e+12
1.798908639143220224e-03	5.039730762549458008e+11	9.230714190352952576e+10	5.486171493685765839e+10	1.839278291050205078e+12
1.837031382726912916e-03	4.792324123505302124e+11	8.875747128277365112e+10	5.350759060140431976e+10	1.740442238856473633e+12
1.875962029250603357e-03	4.557005483869426270e+11	8.534756808202447510e+10	5.218993977443060303e+10	1.646871257149630127e+12
1.915717699915417882e-03	4.333349213562303467e+11	8.207342380039387512e+10	5.090813922654409027e+10	1.558341848687550537e+12
1.956315878757565116e-03	4.120727766284893799e+11	7.892918612698182678e+10	4.966105087282690430e+10	1.474570450077115723e+12
1.997774420337589726e-03	3.918434309334277344e+11	7.590736079303073120e+10	4.844694326411386108e+10	1.395227320928869385e+12
2.040111557592579582e-03	3.726026044071387939e+11	7.300401765968879700e+10	4.726516836312693024e+10	1.320111938486084717e+12
2.083345909854779961e-03	3.543157112029121704e+11	7.021594788534921265e+10	4.611525614602075195e+10	1.249054859498824951e+12
2.127496491040134757e-03	3.369305219824224243e+11	6.753792834281040192e+10	4.499610160424124146e+10	1.181816820247970215e+12
2.172582718010372237e-03	3.203898864907804565e+11	6.496380079815256500e+10	4.390624405965919495e+10	1.118138634450855713e+12
2.218624419112281976e-03	3.046576325882207031e+11	6.249021085854937744e+10	4.284510115771107483e+10	1.057857697999231689e+12
2.265641842897974604e-03	2.897056484758298950e+11	6.011447528014462280e+10	4.181227692695570374e+10	1.000838354406314087e+12
2.313655667029933423e-03	2.754904919716237793e+11	5.783207874455651855e+10	4.080676389217448425e+10	9.468861750948811035e+11
2.362687007374795686e-03	2.619659549071186218e+11	5.563788098335197449e+10	3.982729663384980774e+10	8.957945955086026611e+11
2.412757427289825233e-03	2.491024898113941956e+11	5.352904730582672119e+10	3.887336355058975983e+10	8.474322319273713379e+11
2.463888947106213784e-03	2.368772388823553772e+11	5.150330306244805908e+10	3.794461562055371094e+10	8.016903201186881104e+11
2.516104053813336943e-03	2.252540918460395508e+11	4.955679408771902466e+10	3.704015851230446625e+10	7.584114295268452148e+11
2.569425710948245768e-03	2.141956873442826233e+11	4.768517470300411987e+10	3.615886945631963348e+10	7.174301557174926758e+11
2.623877368694733318e-03	2.036778894113526306e+11	4.588610105861505890e+10	3.530032936803162384e+10	6.786418066524412842e+11
2.679482974196439188e-03	1.936821078686717834e+11	4.415761135061844635e+10	3.446421021448743439e+10	6.419571368498430176e+11
2.736266982088478034e-03	1.841783431453943481e+11	4.249644031029995728e+10	3.364973023379714966e+10	6.072506087753179932e+11
2.794254365252289707e-03	1.751363874857346802e+11	4.089891116398246002e+10	3.285589475224115372e+10	5.743890385087396240e+11
2.853470625798387814e-03	1.665365260517363281e+11	3.936300912702460480e+10	3.208231009917235947e+10	5.432879561171467285e+11
2.913941806281861776e-03	1.583636336602896729e+11	3.788716442699497223e+10	3.132874905899282455e+10	5.138764754793180542e+11
2.975694501155571117e-03	1.505928026778623047e+11	3.646851602376917267e+10	3.059446438785379410e+10	4.860532015894990234e+11
3.038755868466027146e-03	1.431996086009913025e+11	3.510398288253043365e+10	2.987859348740733337e+10	4.597108886272597656e+11
3.103153641797168783e-03	1.361679480335367889e+11	3.379186443746717834e+10	2.918080082477722931e+10	4.347814261532867432e+11
3.168916142467233243e-03	1.294855122840536957e+11	3.253084186135544205e+10	2.850088059242139053e+10	4.112089769245328369e+11
3.236072291984112663e-03	1.231316311829272308e+11	3.131843154644107056e+10	2.783815767766897202e+10	3.889098864973941040e+11
3.304651624764658874e-03	1.170865566519110870e+11	3.015210955273589706e+10	2.719189698701623535e+10	3.678005447435587769e+11
3.374684301123556836e-03	1.113371357833888550e+11	2.903035574458583832e+10	2.656177040870297241e+10	3.478241767160874023e+11
3.446201120537424525e-03	1.058733479169161682e+11	2.795213867187973404e+10	2.594763333576620102e+10	3.289381221914796753e+11
3.519233535190044709e-03	1.006780491950581512e+11	2.691524384781660080e+10	2.534884296659767151e+10	3.110724036794841919e+11
3.593813663804625805e-03	9.573527218156883240e+10	2.591760390717205429e+10	2.476478626700536728e+10	2.941613501870172119e+11
3.669974305769219299e-03	9.103427428525050354e+10	2.495789254766505051e+10	2.419515616197578049e+10	2.781590964455813599e+11
3.747748955561452412e-03	8.656689453913493347e+10	2.403535158802975845e+10	2.363989674130000305e+10	2.630328098255490112e+11
3.827171817478984984e-03	8.231892127520903015e+10	2.314793592438586426e+10	2.309831375394176865e+10	2.487239850610867615e+11
3.908277820682117681e-03	7.827744372052017212e+10	2.229395299118122101e+10	2.256990294670178223e+10	2.351809026752862244e+11
3.991102634555192957e-03	7.443368824704666138e+10	2.147232480921976471e+10	2.205443042693951797e+10	2.223672740392250977e+11
4.075682684393532908e-03	7.078100590859579468e+10	2.068232134959756088e+10	2.155179740248315048e+10	2.102555616969204712e+11
4.162055167422817371e-03	6.730762174855283356e+10	1.992228341785021210e+10	2.106145227644811249e+10	1.987994034710753784e+11
4.250258069157961290e-03	6.400309629852145386e+10	1.919073439313081741e+10	2.058291781741667557e+10	1.879569982800951233e+11
4.340330180108637088e-03	6.086026419737125397e+10	1.848680833610626984e+10	2.011600078371839523e+10	1.777001170290302429e+11
4.432311112838861061e-03	5.787370650725009918e+10	1.780982419555734253e+10	1.966057767337832642e+10	1.680058171926027832e+11
4.526241319388085715e-03	5.503367182416608429e+10	1.715840303514918137e+10	1.921618006387223434e+10	1.588367281724746399e+11
4.622162109061505458e-03	5.233171881216805267e+10	1.653130643189521027e+10	1.878238878424867249e+10	1.501600821586997681e+11
4.720115666597336779e-03	4.976199579020915985e+10	1.592773094205679512e+10	1.835899319971479416e+10	1.419521152468781738e+11
4.820145070719144588e-03	4.732008452436074066e+10	1.534720067611692810e+10	1.794595198913138580e+10	1.341959883983470154e+11
4.922294313081310678e-03	4.499791334384371185e+10	1.478844782852846527e+10	1.754279328205311584e+10	1.268600035696949921e+11
5.026608317615998724e-03	4.278865640064910126e+10	1.425045768061002350e+10	1.714916492646745300e+10	1.199185370087053528e+11
5.133132960290130720e-03	4.068753510205975342e+10	1.373256235126845741e+10	1.676488940044106102e+10	1.133529829033385162e+11
5.241915089281041530e-03	3.869094545515522766e+10	1.323434471659672928e+10	1.638992300569614220e+10	1.071492333968575134e+11
5.353002545579732367e-03	3.679220956190059662e+10	1.275472696177234268e+10	1.602384343292676353e+10	1.012819795749043121e+11
5.466444184030696055e-03	3.498580761566950989e+10	1.229283710230301857e+10	1.566632754766304207e+10	9.573067961212083435e+10
5.582289894817666839e-03	3.326783745550645447e+10	1.184814479397036934e+10	1.531724167595141029e+10	9.048106179695582581e+10
5.700590625404708227e-03	3.163535821301682663e+10	1.142024537155373001e+10	1.497651617460994148e+10	8.552077227208621216e+10
5.821398402942216249e-03	3.008284746566640472e+10	1.100824345343575859e+10	1.464379023802207947e+10	8.082999870693531799e+10
5.944766357147824969e-03	2.860584145743579483e+10	1.061141063704294777e+10	1.431878765958525085e+10	7.639250676131672668e+10
6.070748743672167193e-03	2.720115386400892258e+10	1.022925658275698090e+10	1.400136322819888115e+10	7.219621602222116089e+10
6.199400967959818945e-03	2.586638384949142456e+10	9.861498762467712402e+09	1.369149847977520370e+10	6.823183940125255585e+10
6.330779609615908021e-03	2.459696665917306137e+10	9.507317288383029938e+09	1.338883197579098701e+10	6.448301758842363739e+10
6.464942447289089879e-03	2.338929238826178360e+10	9.166104028444360733e+09	1.309312298250219727e+10	6.093697069885139465e+10
6.601948484081890736e-03	2.224075936954021454e+10	8.837479286007045746e+09	1.280426646421480560e+10	5.758417812278122711e+10
6.741857973499477616e-03	2.114940666622752380e+10	8.521147816574311256e+09	1.252220631348349953e+10	5.441673029487969971e+10
6.884732445948405985e-03	2.011146292824516678e+10	8.216443607232286453e+09	1.224664365097742844e+10	5.142197259601260376e+10
7.030634735796891313e-03	1.912400857892294312e+10	7.922853660989387512e+09	1.197736799897623253e+10	4.858952768412279510e+10
7.179629009008595825e-03	1.818491942509052658e+10	7.640017134045795441e+09	1.171425876334295273e+10	4.591140012249807739e+10
7.331780791361950343e-03	1.729259281033333206e+10	7.367740477488911629e+09	1.145731393088119698e+10	4.338195490234291840e+10
7.487156997267587974e-03	1.644391522457827950e+10	7.105407458145998955e+09	1.120622785453484726e+10	4.099046841587650299e+10
7.645825959196438613e-03	1.563652428141763878e+10	6.852588565899017334e+09	1.096081608150340462e+10	3.872869811531987000e+10
7.807857457731475631e-03	1.486868605258738327e+10	6.609007810515550613e+09	1.072099846330583191e+10	3.659057386409851074e+10
7.973322752256328111e-03	1.413909037914452362e+10	6.374457864526933670e+09	1.048673592122477531e+10	3.457123857191056824e+10
8.142294612294233985e-03	1.344516710685545921e+10	6.148438017502422333e+09	1.025777515713888550e+10	3.266224153837279892e+10
8.314847349511189298e-03	1.278500540531827354e+10	5.930577812386957169e+09	1.003394712842914009e+10	3.085694649161037445e+10
8.491056850397209546e-03	1.215718970838863373e+10	5.720632716737511635e+09	9.815172205562009811e+09	2.915050515016283417e+10
8.671000609640279119e-03	1.156064845755908394e+10	5.518443941534632683e+09	9.601433680502943039e+09	2.753915366607587814e+10
8.854757764207504128e-03	1.099326094825093842e+10	5.323563074293420792e+09	9.392486841778381348e+09	2.601583093627749252e+10
9.042409128148579806e-03	1.045348149377147484e+10	5.135692693618539810e+09	9.188197004100378036e+09	2.457548891702867126e+10
9.234037228136720080e-03	9.940154518712499619e+09	4.954608759405588150e+09	8.988478580900024414e+09	2.321417970950786209e+10
9.429726339762870002e-03	9.452403106037557602e+09	4.780195175345065117e+09	8.793335808218460083e+09	2.192886054469005585e+10
9.629562524599030379e-03	8.988478237209733963e+09	4.612048966243824005e+09	8.602528181874240875e+09	2.071382749559806824e+10
9.833633668047030499e-03	8.547129469950220108e+09	4.449913553666588783e+09	8.415930578304016113e+09	1.956511740568285751e+10
1.004202951798940403e-02	8.127413506815199852e+09	4.293621455275873184e+09	8.233490608187644958e+09	1.847958543907851791e+10
1.025484172425938229e-02	7.728612417152555466e+09	4.143044227388484955e+09	8.055183911576236725e+09	1.745464447499936295e+10
1.047216387894729824e-02	7.349284273103871346e+09	3.997856994938932419e+09	7.880814899546803474e+09	1.648593516722952461e+10
1.069409155756119272e-02	6.988417421708417892e+09	3.857835245705555439e+09	7.710266297290925980e+09	1.557015839812713623e+10
1.092072236105970547e-02	6.645241904016501427e+09	3.722838938317043304e+09	7.543494927599879265e+09	1.470481875593591690e+10
1.115215595877575537e-02	6.319169619603809357e+09	3.592756982596238136e+09	7.380478101700798988e+09	1.388792707898410416e+10
1.138849413224978825e-02	6.009012346408101082e+09	3.467307769064853191e+09	7.221034797495884895e+09	1.311590122116952515e+10
1.162984081999205582e-02	5.713951539768155098e+09	3.346306473230251789e+09	7.065066509097366333e+09	1.238612601034346390e+10
1.187630216319339981e-02	5.433358768492041588e+09	3.229616636569875717e+09	6.912515316143768311e+09	1.169659661618875885e+10
1.212798655240480798e-02	5.166752013908629417e+09	3.117164822630764008e+09	6.763385876402476311e+09	1.104579904422401047e+10
1.238500467520621366e-02	4.913152554687035561e+09	3.008690796295173168e+09	6.617494668771406174e+09	1.043071079849952888e+10
1.264746956488544717e-02	4.671898019719617844e+09	2.904050482769290447e+09	6.474768815686408997e+09	9.849409154365215302e+09
1.291549665014883955e-02	4.442475531188646317e+09	2.803121430208880424e+09	6.335151038301004410e+09	9.300227961582073212e+09
1.318920380588532899e-02	4.224489796718689442e+09	2.705844481475389957e+09	6.198649608454155922e+09	8.781925835740421295e+09
1.346871140500627631e-02	4.017135002737568855e+09	2.611990986438756943e+09	6.065091475882287979e+09	8.292130168625704765e+09
1.375414237138396570e-02	3.819875096450632572e+09	2.521435143718991280e+09	5.934407415125564575e+09	7.829269927730730057e+09
1.404562223391196511e-02	3.632291537815998554e+09	2.434080855053060532e+09	5.806556323495835304e+09	7.392020948609785080e+09
1.434327918171109106e-02	3.454059973104633331e+09	2.349872845994714260e+09	5.681540805062849045e+09	6.979410753614532471e+09
1.464724412050539583e-02	3.284517234881192207e+09	2.268615940515682220e+09	5.559207350531166077e+09	6.589544971904727936e+09
1.495765073019278586e-02	3.123229447779127598e+09	2.190200222873320103e+09	5.439490531578075409e+09	6.221122743711645126e+09
1.527463552363575450e-02	2.969855085782254696e+09	2.114547374931143522e+09	5.322358376461231232e+09	5.873148400319581985e+09
1.559833790669801906e-02	2.824127842350983143e+09	2.041604910045437336e+09	5.207806637783619881e+09	5.544818999681813240e+09
1.592890023955338338e-02	2.685502188831777096e+09	1.971208460529001713e+09	5.095698781693227768e+09	5.234590711846647263e+09
1.626646789929399317e-02	2.553626903241782665e+09	1.903262854324001789e+09	4.985975860558208466e+09	4.941477533596447945e+09
1.661118934386526108e-02	2.428223325751525402e+09	1.837702678110304832e+09	4.878611153886032104e+09	4.664669768393836975e+09
1.696321617735579643e-02	2.309072677893180847e+09	1.774479394943939686e+09	4.773596541553165436e+09	4.403483786951622963e+09
1.732270321667098503e-02	2.195726399973771095e+09	1.713454801595966578e+09	4.670813793839262962e+09	4.156741981691580772e+09
1.768980855961942850e-02	2.087900135597651482e+09	1.654545530726072073e+09	4.570206635494725227e+09	3.923631865211088181e+09
1.806469365444235767e-02	1.985366546627696276e+09	1.597697272960300446e+09	4.471753354647480011e+09	3.703505345213199139e+09
1.844752337081655841e-02	1.887945778916977167e+09	1.542866714001448393e+09	4.375443985008955002e+09	3.495838164623095512e+09
1.883846607236187159e-02	1.795269177444970131e+09	1.489934578267116308e+09	4.281170058819647789e+09	3.299665868518428326e+09
1.923769369068539445e-02	1.707106485457530260e+09	1.438829670532687902e+09	4.188881023315330505e+09	3.114334930878839016e+09
1.964538180099485026e-02	1.623272245175743103e+09	1.389506150784606695e+09	4.098558800638966084e+09	2.939366289948013783e+09
2.006170969931423895e-02	1.543618520893336535e+09	1.341927007444216728e+09	4.010196166872797966e+09	2.774306859925837040e+09
2.048686048133601528e-02	1.467842456287504435e+09	1.295988170149291039e+09	3.923693001888043404e+09	2.618393231939910412e+09
2.092102112294418406e-02	1.395757572413867474e+09	1.251629624338692427e+09	3.839004709973141670e+09	2.471127233735690594e+09
2.136438256244391209e-02	1.327212595692493916e+09	1.208810809444996834e+09	3.756112782524924755e+09	2.332092730401427746e+09
2.181713978453380873e-02	1.262085758987783432e+09	1.167502086457542181e+09	3.675014027098971367e+09	2.200951136118056297e+09
2.227949190605761978e-02	1.200128381108291864e+09	1.127610181983918905e+09	3.595611514276941299e+09	2.077089666792306423e+09
2.275164226357336353e-02	1.141189408770215750e+09	1.089086837296903133e+09	3.517871128959118843e+09	1.960100730692565203e+09
2.323379850277806913e-02	1.085145465511255264e+09	1.051894960832995415e+09	3.441772706823635578e+09	1.849664886732534170e+09
2.372617266982774559e-02	1.031896255861390948e+09	1.016012186152974486e+09	3.367319101577932358e+09	1.745517988264410734e+09
2.422898130459259780e-02	9.812376811435428858e+08	9.813534183646523952e+08	3.294412768665949821e+09	1.647146206982688427e+09
2.474244553588843265e-02	9.330473587200753689e+08	9.478813086919887066e+08	3.223030330972153187e+09	1.554255505173165321e+09
2.526679117872631872e-02	8.872246787233518362e+08	9.155609559991837740e+08	3.153148064077367783e+09	1.466570196539431334e+09
