# Data associated with arXiv:2208.14002
# 
# Scale-free gravitational potential, Phi(r), of a nfw1-1rhos4e6 dark matter distribution (see Eq. 2.8 and the surrounding discussion)
# 
# Published: 8/25/22, Jack Runburg and Kenny Kiriu, contact: runburg@hawaii.edu
# 
# 
# -----------------------------------------------------------------
# 
# 	 tilde r 		 | 		 tilde Phi
# 
# -----------------------------------------------------------------
1.000000000000000082e-05	1.849274537751722771e-05
1.016902569856036418e-05	1.877382464545795606e-05
1.034090836579813217e-05	1.905917612591950095e-05
1.051569629182590727e-05	1.934886475260902980e-05
1.069343858298338107e-05	1.964295644613231543e-05
1.087418517563349352e-05	1.994151812899176896e-05
1.105798685019213608e-05	2.024461774081300221e-05
1.124489524539464294e-05	2.055232425380217612e-05
1.143496287280373749e-05	2.086470768843869556e-05
1.162824313156251011e-05	2.118183912940610334e-05
1.182479032339672186e-05	2.150379074176490720e-05
1.202465966787094358e-05	2.183063578737164942e-05
1.222790731790219642e-05	2.216244864154684821e-05
1.243459037553620304e-05	2.249930480999671030e-05
1.264476690798990365e-05	2.284128094599151472e-05
1.285849596396550032e-05	2.318845486780549261e-05
1.307583759024001738e-05	2.354090557642129312e-05
1.329685284853523648e-05	2.389871327350350747e-05
1.352160383267306994e-05	2.426195937964565605e-05
1.375015368602047702e-05	2.463072655289379604e-05
1.398256661922970337e-05	2.500509870755229276e-05
1.421890792827791775e-05	2.538516103327455986e-05
1.445924401281218556e-05	2.577100001444462336e-05
1.470364239480425140e-05	2.616270344985259917e-05
1.495217173752060936e-05	2.656036047266916665e-05
1.520490186481353606e-05	2.696406157072403872e-05
1.546190378073772831e-05	2.737389860709172213e-05
1.572324968949899453e-05	2.778996484099088311e-05
1.598901301573965207e-05	2.821235494900036785e-05
1.625926842516730133e-05	2.864116504659855916e-05
1.653409184553174079e-05	2.907649271002885101e-05
1.681356048795696318e-05	2.951843699849843051e-05
1.709775286863338809e-05	2.996709847671354877e-05
1.738674883087671066e-05	3.042257923775721682e-05
1.768062956756000055e-05	3.088498292631518098e-05
1.797947764392438726e-05	3.135441476225356609e-05
1.828337702077590442e-05	3.183098156455608759e-05
1.859241307807381921e-05	3.231479177562358363e-05
1.890667263891824960e-05	3.280595548594380563e-05
1.922624399394281931e-05	3.330458445913535000e-05
1.955121692611963820e-05	3.381079215737200941e-05
1.988168273598394005e-05	3.432469376719402151e-05
2.021773426728446277e-05	3.484640622571045718e-05
2.055946593306806188e-05	3.537604824720071714e-05
2.090697374220454717e-05	3.591374035011905364e-05
2.126035532636048084e-05	3.645960488451030284e-05
2.161970996742848953e-05	3.701376605984150374e-05
2.198513862542019826e-05	3.757634997325617963e-05
2.235674396683105304e-05	3.814748463825858710e-05
2.273463039348393747e-05	3.872730001383262166e-05
2.311890407186101566e-05	3.931592803400414855e-05
2.350967296293065580e-05	3.991350263785135291e-05
2.390704685247916156e-05	4.052015979997183729e-05
2.431113738195477895e-05	4.113603756141199586e-05
2.472205807983296721e-05	4.176127606106602426e-05
2.513992439351238667e-05	4.239601756755273748e-05
2.556485372174920653e-05	4.304040651157531837e-05
2.599696544764047972e-05	4.369458951877389032e-05
2.643638097216418787e-05	4.435871544307583357e-05
2.688322374828698802e-05	4.503293540055386054e-05
2.733761931564792142e-05	4.571740280379740665e-05
2.779969533582839453e-05	4.641227339680629484e-05
2.826958162821882354e-05	4.711770529041496808e-05
2.874741020649071774e-05	4.783385899825367291e-05
2.923331531568612113e-05	4.856089747325705670e-05
2.972743346993304866e-05	4.929898614472592487e-05
3.022990349079926684e-05	5.004829295595313553e-05
3.074086654629380722e-05	5.080898840242015050e-05
3.126046619052763072e-05	5.158124557057345823e-05
3.178884840404535552e-05	5.236524017719108729e-05
3.232616163483768439e-05	5.316115060934530913e-05
3.287255684004812447e-05	5.396915796497394420e-05
3.342818752838356790e-05	5.478944609406604467e-05
3.399320980324275641e-05	5.562220164047473403e-05
3.456778240657304527e-05	5.646761408436381700e-05
3.515206676346841592e-05	5.732587578529898826e-05
3.574622702752206616e-05	5.819718202599446859e-05
3.635043012694450139e-05	5.908173105672252215e-05
3.696484581146223093e-05	5.997972414039851301e-05
3.758964670000808795e-05	6.089136559834942928e-05
3.822500832921870388e-05	6.181686285677861397e-05
3.887110920275097572e-05	6.275642649393520028e-05
3.952813084143210176e-05	6.371027028799935066e-05
4.019625783425803943e-05	6.467861126569609328e-05
4.087567789025284005e-05	6.566166975164534534e-05
4.156658189120576708e-05	6.665966941846311231e-05
4.226916394529853092e-05	6.767283733762147961e-05
4.298362144164019741e-05	6.870140403108254842e-05
4.371015510572303796e-05	6.974560352371509775e-05
4.444896905581571312e-05	7.080567339650698313e-05
4.520027086031053377e-05	7.188185484058666182e-05
4.596427159603870473e-05	7.297439271206289759e-05
4.674118590757267352e-05	7.408353558769904378e-05
4.753123206752940771e-05	7.520953582143044254e-05
4.833463203789430644e-05	7.635264960174165062e-05
4.915161153238073493e-05	7.751313700991343928e-05
4.998240007984356624e-05	7.869126207915381197e-05
5.082723108876559525e-05	7.988729285462809664e-05
5.168634191283236288e-05	8.110150145439800609e-05
5.255997391761710167e-05	8.233416413128804353e-05
5.344837254839108326e-05	8.358556133568852326e-05
5.435178739908172257e-05	8.485597777931404458e-05
5.527047228239525742e-05	8.614570249992820658e-05
5.620468530112457639e-05	8.745502892705054243e-05
5.715468892066349253e-05	8.878425494866226133e-05
5.812075004274504757e-05	9.013368297892208740e-05
5.910314008042789533e-05	9.150362002691204998e-05
6.010213503434844385e-05	9.289437776642421650e-05
6.111801557026345553e-05	9.430627260680869651e-05
6.215106709790228898e-05	9.573962576489514155e-05
6.320157985115178797e-05	9.719476333800562988e-05
6.426984896959787321e-05	9.867201637807715094e-05
6.535617458144342038e-05	1.001717209669060764e-04
6.646086188782971240e-05	1.016942182925371961e-04
6.758422124858115099e-05	1.032398547268089886e-04
6.872656826940111863e-05	1.048089819040779196e-04
6.988822389054047174e-05	1.064019568011354726e-04
7.106951447696465861e-05	1.080191418183375066e-04
7.227077191004629639e-05	1.096609048619663380e-04
7.349233368080552791e-05	1.113276194278392214e-04
7.473454298472863809e-05	1.130196646861886137e-04
7.599774881818697982e-05	1.147374255678263767e-04
7.728230607648789517e-05	1.164812928516183199e-04
7.858857565358148443e-05	1.182516632532833395e-04
7.991692454345255051e-05	1.200489395155396799e-04
8.126772594322802224e-05	1.218735304996201884e-04
8.264135935802465773e-05	1.237258512781721522e-04
8.403821070757165439e-05	1.256063232295707435e-04
8.545867243463269578e-05	1.275153741336575413e-04
8.690314361526321394e-05	1.294534382689353530e-04
8.837203007092955202e-05	1.314209565112343795e-04
8.986574448252320402e-05	1.334183764338742813e-04
9.138470650630395851e-05	1.354461524093477601e-04
9.292934289180014931e-05	1.375047457125420263e-04
9.450008760170456993e-05	1.395946246255291075e-04
9.609738193379394305e-05	1.417162645439410979e-04
9.772167464491231779e-05	1.438701480849622781e-04
9.937342207704681467e-05	1.460567651969536644e-04
1.010530882855375953e-04	1.482766132707441932e-04
1.027611451694522251e-04	1.505301972526048584e-04
1.044980726041651943e-04	1.528180297589374606e-04
1.062643585761784858e-04	1.551406311927018740e-04
1.080604993202192510e-04	1.574985298616055215e-04
1.098869994586575572e-04	1.598922620980878552e-04
1.117443721432778697e-04	1.623223723811195198e-04
1.136331391994486811e-04	1.647894134598493763e-04
1.155538312727281931e-04	1.672939464791245933e-04
1.175069879779481330e-04	1.698365411069127000e-04
1.194931580508180820e-04	1.724177756636547114e-04
1.215128995020904455e-04	1.750382372535762147e-04
1.235667797743341897e-04	1.776985218979914357e-04
1.256553759013554958e-04	1.803992346706226205e-04
1.277792746703147969e-04	1.831409898349722453e-04
1.299390727865835948e-04	1.859244109837747806e-04
1.321353770413874452e-04	1.887501311805608059e-04
1.343688044822834680e-04	1.916187931033660563e-04
1.366399825865173903e-04	1.945310491906146737e-04
1.389495494373137348e-04	1.974875617892149894e-04
1.412981539031428761e-04	2.004890033048949431e-04
1.436864558200198782e-04	2.035360563548154107e-04
1.461151261768842277e-04	2.066294139224939127e-04
1.485848473041125864e-04	2.097697795150735604e-04
1.510963130652191798e-04	2.129578673229742651e-04
1.536502290517936125e-04	2.161944023819572732e-04
1.562473127817378576e-04	2.194801207376484550e-04
1.588882939008491742e-04	2.228157696125451206e-04
1.615739143878149021e-04	2.262021075755569967e-04
1.643049287626683534e-04	2.296399047141075460e-04
1.670821042987704773e-04	2.331299428088430645e-04
1.699062212383743503e-04	2.366730155109844126e-04
1.727780730118311508e-04	2.402699285223603039e-04
1.756984664605053779e-04	2.439214997781689344e-04
1.786682220634525510e-04	2.476285596324980659e-04
1.816881741679340619e-04	2.513919510466569606e-04
1.847591712238235014e-04	2.552125297803545093e-04
1.878820760219775598e-04	2.590911645857680592e-04
1.910577659366365815e-04	2.630287374045498601e-04
1.942871331719188508e-04	2.670261435678077762e-04
1.975710850124866975e-04	2.710842919991167214e-04
2.009105440784431595e-04	2.752041054205910152e-04
2.043064485845435532e-04	2.793865205620809202e-04
2.077597526037827484e-04	2.836324883735236125e-04
2.112714263354412516e-04	2.879429742405088658e-04
2.148424563776607336e-04	2.923189582031003771e-04
2.184738460046266035e-04	2.967614351779645056e-04
2.221666154484372088e-04	3.012714151838566780e-04
2.259218021857336319e-04	3.058499235705101817e-04
2.297404612291798821e-04	3.104980012509905027e-04
2.336236654238643619e-04	3.152167049375511482e-04
2.375725057487147664e-04	3.200071073810583375e-04
2.415880916230062926e-04	3.248702976140280924e-04
2.456715512180506823e-04	3.298073811973344354e-04
2.498240317741551374e-04	3.348194804706443165e-04
2.540466999229345113e-04	3.399077348066283826e-04
2.583407420150777146e-04	3.450733008690170319e-04
2.627073644536481322e-04	3.503173528745443096e-04
2.671477940330213769e-04	3.556410828588493583e-04
2.716632782835508839e-04	3.610457009463893612e-04
2.762550858220584886e-04	3.665324356244239372e-04
2.809245067082517420e-04	3.721025340211365248e-04
2.856728528071605542e-04	3.777572621879447443e-04
2.905014581577071149e-04	3.834979053860775294e-04
2.954116793474984839e-04	3.893257683774658650e-04
3.004048958939589458e-04	3.952421757200249783e-04
3.054825106319022541e-04	4.012484720673862573e-04
3.106459501076553839e-04	4.073460224731482331e-04
3.158966649798455200e-04	4.135362126997147131e-04
3.212361304269563162e-04	4.198204495317822433e-04
3.266658465617811426e-04	4.262001610945597352e-04
3.321873388528732334e-04	4.326767971767734883e-04
3.378021585531251671e-04	4.392518295585445647e-04
3.435118831355896260e-04	4.459267523442004199e-04
3.493181167366675791e-04	4.527030823001002664e-04
3.552224906067888996e-04	4.595823591975483789e-04
3.612266635687054364e-04	4.665661461608638667e-04
3.673323224835388411e-04	4.736560300206985800e-04
3.735411827246973185e-04	4.808536216726633792e-04
3.798549886598084251e-04	4.881605564413568198e-04
3.862755141407951480e-04	4.955784944498667832e-04
3.928045630022363724e-04	5.031091209948319485e-04
3.994439695681523583e-04	5.107541469271443700e-04
4.061955991673505371e-04	5.185153090383702980e-04
4.130613486574917070e-04	5.263943704529916489e-04
4.200431469580040238e-04	5.343931210265315474e-04
4.271429555920115370e-04	5.425133777496696534e-04
4.343627692374198417e-04	5.507569851584270685e-04
4.417046162873167637e-04	5.591258157505122218e-04
4.491705594198478857e-04	5.676217704079244454e-04
4.567626961777168084e-04	5.762467788258917841e-04
4.644831595574927248e-04	5.850027999482654457e-04
4.723341186088662533e-04	5.938918224094330177e-04
4.803177790440425624e-04	6.029158649828724207e-04
4.884363838574312710e-04	6.120769770364331216e-04
4.966922139558113680e-04	6.213772389944451080e-04
5.050875887991499369e-04	6.308187628067618785e-04
5.136248670522445235e-04	6.404036924248263530e-04
5.223064472473935762e-04	6.501342042848877456e-04
5.311347684582509721e-04	6.600125077984413937e-04
5.401123109850867847e-04	6.700408458500337885e-04
5.492415970516181150e-04	6.802214953025114124e-04
5.585251915136241153e-04	6.905567675098401269e-04
5.679657025795404723e-04	7.010490088376053735e-04
5.775657825432239500e-04	7.117006011912910919e-04
5.873281285291183634e-04	7.225139625524814452e-04
5.972554832499969713e-04	7.334915475230610301e-04
6.073506357775315233e-04	7.446358478775766355e-04
6.176164223258701069e-04	7.559493931238376371e-04
6.280557270484683893e-04	7.674347510719056221e-04
6.386714828483902292e-04	7.790945284115871963e-04
6.494666722022935214e-04	7.909313712985418599e-04
6.604443279983617009e-04	8.029479659491589117e-04
6.716075343883770371e-04	8.151470392442968383e-04
6.829594276542177208e-04	8.275313593420511801e-04
6.945031970889825731e-04	8.401037362996476932e-04
7.062420858930204982e-04	8.528670227046222449e-04
7.181793920851009278e-04	8.658241143154063804e-04
7.303184694289851413e-04	8.789779507114608070e-04
7.426627283756636558e-04	8.923315159531007785e-04
7.552156370215079703e-04	9.058878392511350271e-04
7.679807220826359018e-04	9.196499956464975704e-04
7.809615698857278474e-04	9.336211066999725722e-04
7.941618273756021005e-04	9.478043411921958147e-04
8.075852031398165869e-04	9.622029158340624508e-04
8.212354684505887787e-04	9.768200959876967293e-04
8.351164583243314002e-04	9.916591963981386242e-04
8.492320725990840828e-04	1.006723581935893954e-03
8.635862770301777234e-04	1.022016668350526989e-03
8.781831044043956558e-04	1.037541923035417528e-03
8.930266556729828109e-04	1.053302865803885284e-03
9.081211011037989590e-04	1.069303069676814412e-03
9.234706814529467173e-04	1.085546161681959871e-03
9.390797091562086895e-04	1.102035823665100224e-03
9.549525695406079406e-04	1.118775793113194715e-03
9.710937220564705170e-04	1.135769863989749334e-03
9.875077015302894702e-04	1.153021887582523922e-03
1.004199119438780371e-03	1.170535773363793469e-03
1.021172665204465608e-03	1.188315489863321032e-03
1.038433107513160114e-03	1.206365065554238945e-03
1.055985295653722377e-03	1.224688589752008549e-03
1.073834160880457900e-03	1.243290213526660089e-03
1.091984717798539194e-03	1.262174150628485184e-03
1.110442065772854507e-03	1.281344678427388936e-03
1.129211390360662605e-03	1.300806138866086436e-03
1.148297964768467102e-03	1.320562939427347929e-03
1.167707151333511727e-03	1.340619554115477603e-03
1.187444403030319794e-03	1.360980524452245870e-03
1.207515265002700490e-03	1.381650460487470746e-03
1.227925376121640280e-03	1.402634041824446292e-03
1.248680470569537605e-03	1.423936018660446881e-03
1.269786379451208914e-03	1.445561212842503109e-03
1.291249032432127903e-03	1.467514518938677461e-03
1.313074459404352896e-03	1.489800905325042255e-03
1.335268792180613557e-03	1.512425415288594496e-03
1.357838266217031810e-03	1.535393168146322084e-03
1.380789222364966172e-03	1.558709360380657093e-03
1.404128108652453718e-03	1.582379266791524930e-03
1.427861482095777682e-03	1.606408241665246766e-03
1.451996010541646868e-03	1.630801719960511646e-03
1.476538474540514635e-03	1.655565218511661140e-03
1.501495769251562883e-03	1.680704337249529830e-03
1.526874906379880551e-03	1.706224760440074300e-03
1.552683016146397385e-03	1.732132257941060380e-03
1.578927349291094897e-03	1.758432686477015517e-03
1.605615279110095620e-03	1.785131990932752001e-03
1.632754303527175332e-03	1.812236205665670747e-03
1.660352047200289172e-03	1.839751455837127306e-03
1.688416263663707062e-03	1.867683958763115748e-03
1.716954837506350865e-03	1.896040025284532592e-03
1.745975786586963620e-03	1.924826061157294431e-03
1.775487264286699802e-03	1.954048568462564677e-03
1.805497561799810540e-03	1.983714147037385876e-03
1.836015110463037458e-03	2.013829495925972563e-03
1.867048484124379315e-03	2.044401414851955683e-03
1.898606401551900620e-03	2.075436805711861326e-03
1.930697728883249645e-03	2.106942674090107621e-03
1.963331482116591892e-03	2.138926130795808841e-03
1.996516829643624896e-03	2.171394393421671211e-03
2.030263094825430960e-03	2.204354787925300908e-03
2.064579758611852570e-03	2.237814750233193140e-03
2.099476462205150749e-03	2.271781827867723653e-03
2.134963009768679927e-03	2.306263681597440617e-03
2.171049371181348660e-03	2.341268087110966959e-03
2.207745684838647703e-03	2.376802936714836681e-03
2.245062260500998302e-03	2.412876241055540542e-03
2.283009582190270292e-03	2.449496130866159280e-03
2.321598311135244109e-03	2.486670858737856284e-03
2.360839288766866315e-03	2.524408800773472392e-03
2.400743539764126078e-03	2.562718458958683845e-03
2.441322275151419988e-03	2.601608462218350012e-03
2.482586895448264750e-03	2.641087568799420186e-03
2.524548993872262424e-03	2.681164668049006074e-03
2.567220359596177753e-03	2.721848782342058994e-03
2.610612981060093842e-03	2.763149069036282667e-03
2.654739049339540410e-03	2.805074822454618148e-03
2.699610961570552640e-03	2.847635475895635669e-03
2.745241324432623389e-03	2.890840603672191651e-03
2.791642957690524101e-03	2.934699923178731192e-03
2.838828897796003177e-03	2.979223296987568246e-03
2.886812401550338004e-03	3.024420734974513861e-03
2.935606949828818354e-03	3.070302396474225426e-03
2.985226251368169013e-03	3.116878592465646431e-03
3.035684246617996723e-03	3.164159787787904510e-03
3.086995111657330013e-03	3.212156603387034213e-03
3.139173262177360861e-03	3.260879818593920461e-03
3.192233357531519197e-03	3.310340373433851274e-03
3.246190304853968818e-03	3.360549370968007182e-03
3.301059263247754609e-03	3.411518079667360051e-03
3.356855648043719550e-03	3.463257935819298756e-03
3.413595135131412741e-03	3.515780545967413240e-03
3.471293665363201029e-03	3.569097689384818136e-03
3.529967449032819348e-03	3.623221320581410197e-03
3.589632970429635240e-03	3.678163571845485813e-03
3.650306992469857896e-03	3.733936755820065588e-03
3.712006561406061729e-03	3.790553368114399097e-03
3.774749011616297320e-03	3.848026089951007631e-03
3.838551970474150202e-03	3.906367790848702497e-03
3.903433363301120080e-03	3.965591531341958360e-03
3.969411418402700453e-03	4.025710565737102183e-03
4.036504672189604979e-03	4.086738344905695500e-03
4.104731974385511864e-03	4.148688519115530278e-03
4.174112493322873658e-03	4.211574940899682866e-03
4.244665721328222743e-03	4.275411667964022430e-03
4.316411480198500787e-03	4.340212966133604085e-03
4.389369926769958255e-03	4.405993312338384732e-03
4.463561558581177410e-03	4.472767397638647592e-03
4.539007219631814756e-03	4.540550130290609866e-03
4.615728106238700494e-03	4.609356638705161893e-03
4.693745772990876204e-03	4.679202275161374949e-03
4.773082138805334954e-03	4.750102618177418946e-03
4.853759493085097083e-03	4.822073476266948260e-03
4.935800501981372872e-03	4.895130891084851013e-03
5.019228214761578891e-03	4.969291140742830397e-03
5.104066070284974874e-03	5.044570743168092994e-03
5.190337903587798063e-03	5.120986459505672342e-03
5.278067952579629761e-03	5.198555297564718194e-03
5.367280864853020243e-03	5.277294515309272765e-03
5.458001704608171807e-03	5.357221624393929474e-03
5.550255959694683563e-03	5.438354393744743685e-03
5.644069548772311269e-03	5.520710853185909796e-03
5.739468828592763153e-03	5.604309297112575021e-03
5.836480601404602127e-03	5.689168288210226174e-03
5.935132122483251921e-03	5.775306661221035406e-03
6.035451107788337120e-03	5.862743526757654110e-03
6.137465741750428375e-03	5.951498275164784565e-03
6.241204685189401941e-03	6.041590580429017678e-03
6.346697083366644419e-03	6.133040404137268115e-03
6.453972574173352621e-03	6.225867999484272636e-03
6.563061296457267831e-03	6.320093915329527169e-03
6.673993898490092683e-03	6.415739000304038209e-03
6.786801546578089504e-03	6.512824406967316140e-03
6.901515933818189001e-03	6.611371596014960043e-03
