# Data associated with arXiv:2208.14002
# 
# Scale-free J-factor angular distribution, J_S(theta), of a nfw1-7rhos4e6 dark matter distribution (see Eq. 2.4 and the surrounding discussion)
# 
# Published: 8/25/22, Jack Runburg and Kenny Kiriu, contact: runburg@hawaii.edu
# 
# 
# -----------------------------------------------------------------
# 
# 	 tilde theta 		 | 	 tilde J s-wave 		 | 	 tilde J p-wave 		 | 	 tilde J d-wave 		 | 	 tilde J sommerfeld 
# 
# -----------------------------------------------------------------
1.000000000000000021e-03	1.620559561078225586e+12	1.783168530839735107e+11	3.915681006185921478e+10	7.171178585190464844e+12
1.021192151037671062e-03	1.580629313370390137e+12	1.743399295879740295e+11	3.839296314765579224e+10	6.986994115854455078e+12
1.042833409340945643e-03	1.539944290577838623e+12	1.702857432317605896e+11	3.761381235959003448e+10	6.799370957048216797e+12
1.064933292458827233e-03	1.498525944283253906e+12	1.661561907810867004e+11	3.681966937224371338e+10	6.608412986625264648e+12
1.087501519637659123e-03	1.456400938382690674e+12	1.619536625783267212e+11	3.601093517537825775e+10	6.414248653173974609e+12
1.110548016095517111e-03	1.413601942904472656e+12	1.576811182617270813e+11	3.518811392795544434e+10	6.217034707189291016e+12
1.134082917387199208e-03	1.370168590892246338e+12	1.533421781396220398e+11	3.435182970668094635e+10	6.016960696695719727e+12
1.158116573861711456e-03	1.326148651061332520e+12	1.489412353452546692e+11	3.350284711379310608e+10	5.814254473101197266e+12
1.182659555214217667e-03	1.281599494847520508e+12	1.444835964615925598e+11	3.264209720208062363e+10	5.609189072974790039e+12
1.207722655134462354e-03	1.236589980651512451e+12	1.399756627114307251e+11	3.177071103066170120e+10	5.402091545248540039e+12
1.233316896053688856e-03	1.191202958448363281e+12	1.354251718926478424e+11	3.089006475114634323e+10	5.193354662607289062e+12
1.259453533992170365e-03	1.145538756428865234e+12	1.308415373414794159e+11	3.000184331872965240e+10	4.983453180899351562e+12
1.286144063509461061e-03	1.099720358383343262e+12	1.262363558512291412e+11	2.910813708039893723e+10	4.772967890250654297e+12
1.313400222759557485e-03	1.053901854821655151e+12	1.216242473198921051e+11	2.821160396348659897e+10	4.562624660627222656e+12
1.341233998653187541e-03	1.008284437951516846e+12	1.170244714526395264e+11	2.731578815060601044e+10	4.353367786720439453e+12
1.369657632129505243e-03	9.631554874083990479e+11	1.124649661851856232e+11	2.642593585596173859e+10	4.146537457921122559e+12
1.398683623539492566e-03	9.190543831942493896e+11	1.079999138581046448e+11	2.555263781419699097e+10	3.944614036334423828e+12
1.428324738143458596e-03	8.752859404070866699e+11	1.035484595553946686e+11	2.467761201165769196e+10	3.744618642525418457e+12
1.458594011725036863e-03	8.330037116768626709e+11	9.922093472213256836e+10	2.382119811176807404e+10	3.551960068232108887e+12
1.489504756324154782e-03	7.920776154202835693e+11	9.499943390519076538e+10	2.297868488317185593e+10	3.366162389986802734e+12
1.521070566091505720e-03	7.534565847380560303e+11	9.099069465757272339e+10	2.217341099288384247e+10	3.191378762618217773e+12
1.553305323267072666e-03	7.168247236110400391e+11	8.716375084889134216e+10	2.139947232502759552e+10	3.026107862146590820e+12
1.586223204285366938e-03	6.816264804254661865e+11	8.345988589067993164e+10	2.064457382872451782e+10	2.867870520424416992e+12
1.619838686010041055e-03	6.481712789144660645e+11	7.991546934789581299e+10	1.991698558271269608e+10	2.717969629791410156e+12
1.654166552100628336e-03	6.163687365071798096e+11	7.652314644690756226e+10	1.921562830310980225e+10	2.575936520926837402e+12
1.689221899514206692e-03	5.861107003901207275e+11	7.327404568791546631e+10	1.853913171596911621e+10	2.441252665581801270e+12
1.725020145144853453e-03	5.573308338618731689e+11	7.016281799607618713e+10	1.788672906915087128e+10	2.313571204080778320e+12
1.761577032603788440e-03	5.299767433952502441e+11	6.718541471787886810e+10	1.725787788414931488e+10	2.192613243220641846e+12
1.798908639143220224e-03	5.039730762549458008e+11	6.433581438560850525e+10	1.665168877743956947e+10	2.078015542976381348e+12
1.837031382726912916e-03	4.792324123505302124e+11	6.160631703134736633e+10	1.606691210317524529e+10	1.969336848716154053e+12
1.875962029250603357e-03	4.557005483869426270e+11	5.899253078747735596e+10	1.550290951763117599e+10	1.866305728298836182e+12
1.915717699915417882e-03	4.333349213562303467e+11	5.649137930869730377e+10	1.495930404525422096e+10	1.768716892185512207e+12
1.956315878757565116e-03	4.120727766284893799e+11	5.409726490355842590e+10	1.443518558503111458e+10	1.676248266237714844e+12
1.997774420337589726e-03	3.918434309334277344e+11	5.180406774629936218e+10	1.392956680367319679e+10	1.588560553895730225e+12
2.040111557592579582e-03	3.726026044071387939e+11	4.960811793535658264e+10	1.344189471600706482e+10	1.505436485948259766e+12
2.083345909854779961e-03	3.543157112029121704e+11	4.750662608567063904e+10	1.297179763039574242e+10	1.426693530708895264e+12
2.127496491040134757e-03	3.369305219824224243e+11	4.549501740799874115e+10	1.251851968266666794e+10	1.352084914106732178e+12
2.172582718010372237e-03	3.203898864907804565e+11	4.356820942100381470e+10	1.208123027161484337e+10	1.281338746021395508e+12
2.218624419112281976e-03	3.046576325882207031e+11	4.172295835474974823e+10	1.165940172918393898e+10	1.214269772669391357e+12
2.265641842897974604e-03	2.897056484758298950e+11	3.995717998499114227e+10	1.125278467909556007e+10	1.150744911435689209e+12
2.313655667029933423e-03	2.754904919716237793e+11	3.826679695034069824e+10	1.086066647506670380e+10	1.090551693188226562e+12
2.362687007374795686e-03	2.619659549071186218e+11	3.664755006123323822e+10	1.048233062806911469e+10	1.033469439126364502e+12
2.412757427289825233e-03	2.491024898113941956e+11	3.509692132895449829e+10	1.011737751987232018e+10	9.793622293804488525e+11
2.463888947106213784e-03	2.368772388823553772e+11	3.361295271417272186e+10	9.765529765799993515e+09	9.281126232200837402e+11
2.516104053813336943e-03	2.252540918460395508e+11	3.219229547004319382e+10	9.426209487396810532e+09	8.795499519547351074e+11
2.569425710948245768e-03	2.141956873442826233e+11	3.083145019904429245e+10	9.098803753345638275e+09	8.335022451270917969e+11
2.623877368694733318e-03	2.036778894113526306e+11	2.952817102078248215e+10	8.782940874507947922e+09	7.898499562570306396e+11
2.679482974196439188e-03	1.936821078686717834e+11	2.828090486070888519e+10	8.478396822680094719e+09	7.485045874653189697e+11
2.736266982088478034e-03	1.841783431453943481e+11	2.708683819659647369e+10	8.184686219285864830e+09	7.093295200408850098e+11
2.794254365252289707e-03	1.751363874857346802e+11	2.594290039346790695e+10	7.901228182570652962e+09	6.721800877827864990e+11
2.853470625798387814e-03	1.665365260517363281e+11	2.484742238565726471e+10	7.627778744379101753e+09	6.369675257181943359e+11
2.913941806281861776e-03	1.583636336602896729e+11	2.379898785116417313e+10	7.364099267036954880e+09	6.036166976991080322e+11
2.975694501155571117e-03	1.505928026778623047e+11	2.279515945179450226e+10	7.109757317594822884e+09	5.720120966896535645e+11
3.038755868466027146e-03	1.431996086009913025e+11	2.183353203385938263e+10	6.864303607144911766e+09	5.420459734643201294e+11
3.103153641797168783e-03	1.361679480335367889e+11	2.091254409000226974e+10	6.627469418256235123e+09	5.136410812184068604e+11
3.168916142467233243e-03	1.294855122840536957e+11	2.003110583752323532e+10	6.399093706915856361e+09	4.867386163353051147e+11
3.236072291984112663e-03	1.231316311829272308e+11	1.918714459193309402e+10	6.178781607016873360e+09	4.612470542988198242e+11
3.304651624764658874e-03	1.170865566519110870e+11	1.837859949429963684e+10	5.966143672841678619e+09	4.370744555042011108e+11
3.374684301123556836e-03	1.113371357833888550e+11	1.760420271062774658e+10	5.760952327537002563e+09	4.141618378668101196e+11
3.446201120537424525e-03	1.058733479169161682e+11	1.686307629455723190e+10	5.563084800463038445e+09	3.924637922896300049e+11
3.519233535190044709e-03	1.006780491950581512e+11	1.615337049230472565e+10	5.372169608740406036e+09	3.719011711825366211e+11
3.593813663804625805e-03	9.573527218156883240e+10	1.547345797039445686e+10	5.187895731239015579e+09	3.524048101263222656e+11
3.669974305769219299e-03	9.103427428525050354e+10	1.482225329652186584e+10	5.010069539819101334e+09	3.339251802378861084e+11
3.747748955561452412e-03	8.656689453913493347e+10	1.419896170773399162e+10	4.838554052526780128e+09	3.164234300704121094e+11
3.827171817478984984e-03	8.231892127520903015e+10	1.360211765110747528e+10	4.673070424320166588e+09	2.998394045574030762e+11
3.908277820682117681e-03	7.827744372052017212e+10	1.303026557267565155e+10	4.513312038087647438e+09	2.841148259247368164e+11
3.991102634555192957e-03	7.443368824704666138e+10	1.248253378272117043e+10	4.359125711473972321e+09	2.692103324649388123e+11
4.075682684393532908e-03	7.078100590859579468e+10	1.195831139560577011e+10	4.210419611609838009e+09	2.550964983835349121e+11
4.162055167422817371e-03	6.730762174855283356e+10	1.145623651398706627e+10	4.066897269321548462e+09	2.417206720117349243e+11
4.250258069157961290e-03	6.400309629852145386e+10	1.097521531057598877e+10	3.928350061835631371e+09	2.290389177452070618e+11
4.340330180108637088e-03	6.086026419737125397e+10	1.051446109376935577e+10	3.794617442022231102e+09	2.170193309943752747e+11
4.432311112838861061e-03	5.787370650725009918e+10	1.007343791058644867e+10	3.665612884972515583e+09	2.056370301888112793e+11
4.526241319388085715e-03	5.503367182416608429e+10	9.651068549742647171e+09	3.541113489561601639e+09	1.948508453125751648e+11
4.622162109061505458e-03	5.233171881216805267e+10	9.246353793366025925e+09	3.420896807169337749e+09	1.846238731175199890e+11
4.720115666597336779e-03	4.976199579020915985e+10	8.858689478561456680e+09	3.304855686123759270e+09	1.749308009532150574e+11
4.820145070719144588e-03	4.732008452436074066e+10	8.487634362994424820e+09	3.192913754449328899e+09	1.657525619333753052e+11
4.922294313081310678e-03	4.499791334384371185e+10	8.132210154387209892e+09	3.084849058387606621e+09	1.570544156932045898e+11
5.026608317615998724e-03	4.278865640064910126e+10	7.791662657956854820e+09	2.980509638157576561e+09	1.488079535845008240e+11
5.133132960290130720e-03	4.068753510205975342e+10	7.465437877445299149e+09	2.879775739838181496e+09	1.409923014477006226e+11
5.241915089281041530e-03	3.869094545515522766e+10	7.153160211376000404e+09	2.782583171876716614e+09	1.335913193107581482e+11
5.353002545579732367e-03	3.679220956190059662e+10	6.854049403290616035e+09	2.688761557254697800e+09	1.265778710842266083e+11
5.466444184030696055e-03	3.498580761566950989e+10	6.567417252854780197e+09	2.598148907148388386e+09	1.199285249732128601e+11
5.582289894817666839e-03	3.326783745550645447e+10	6.292834559745601654e+09	2.510662086449457169e+09	1.136267744613319244e+11
5.700590625404708227e-03	3.163535821301682663e+10	6.030000868039173126e+09	2.426252963460948467e+09	1.076599917115368195e+11
5.821398402942216249e-03	3.008284746566640472e+10	5.778203203787281990e+09	2.344745245797091007e+09	1.020050646752425995e+11
5.944766357147824969e-03	2.860584145743579483e+10	5.536918514732028961e+09	2.266026262315166950e+09	9.664404196917358398e+10
6.070748743672167193e-03	2.720115386400892258e+10	5.305768783043282509e+09	2.190017895956446648e+09	9.156344184609797668e+10
6.199400967959818945e-03	2.586638384949142456e+10	5.084482898224917412e+09	2.116663915904378414e+09	8.675292830394955444e+10
6.330779609615908021e-03	2.459696665917306137e+10	4.872491803880447388e+09	2.045831246528713703e+09	8.219418889505335999e+10
6.464942447289089879e-03	2.338929238826178360e+10	4.669331702946659088e+09	1.977412403939045668e+09	7.787219456255909729e+10
6.601948484081890736e-03	2.224075936954021454e+10	4.474698482853287697e+09	1.911339747378783464e+09	7.377643217427709961e+10
6.741857973499477616e-03	2.114940666622752380e+10	4.288365039503441334e+09	1.847568994348837614e+09	6.989854453031700134e+10
6.884732445948405985e-03	2.011146292824516678e+10	4.109839196398301125e+09	1.785981525008039474e+09	6.622349696157041931e+10
7.030634735796891313e-03	1.912400857892294312e+10	3.938750292096355438e+09	1.726487832977889538e+09	6.273964876833966827e+10
7.179629009008595825e-03	1.818491942509052658e+10	3.774823910352609158e+09	1.669022536161196470e+09	5.943810233981526947e+10
7.331780791361950343e-03	1.729259281033333206e+10	3.617885003968109131e+09	1.613556027157356977e+09	5.631226398643459320e+10
7.487156997267587974e-03	1.644391522457827950e+10	3.467516370996077538e+09	1.559983947875851154e+09	5.334997986820113373e+10
7.645825959196438613e-03	1.563652428141763878e+10	3.323393365427613258e+09	1.508221421938184023e+09	5.054177890621788025e+10
7.807857457731475631e-03	1.486868605258738327e+10	3.185306857616432190e+09	1.458222067001952171e+09	4.788082045344361877e+10
7.973322752256328111e-03	1.413909037914452362e+10	3.053095425413378716e+09	1.409954384534640551e+09	4.536148105789312744e+10
8.142294612294233985e-03	1.344516710685545921e+10	2.926407345919854164e+09	1.363327759405528545e+09	4.297391841302536774e+10
8.314847349511189298e-03	1.278500540531827354e+10	2.804980904329579830e+09	1.318273459752035141e+09	4.071064614914579773e+10
8.491056850397209546e-03	1.215718970838863373e+10	2.688625513383952618e+09	1.274744656871630430e+09	3.856597939572816467e+10
8.671000609640279119e-03	1.156064845755908394e+10	2.577222300752480507e+09	1.232721389716217756e+09	3.653574482166965485e+10
8.854757764207504128e-03	1.099326094825093842e+10	2.470459961801795483e+09	1.192118539193079472e+09	3.461158935767258453e+10
9.042409128148579806e-03	1.045348149377147484e+10	2.368125700580730438e+09	1.152880552172745228e+09	3.278766810119632721e+10
9.234037228136720080e-03	9.940154518712499619e+09	2.270066222034175873e+09	1.114969711356369495e+09	3.105943759640443039e+10
9.429726339762870002e-03	9.452403106037557602e+09	2.176166933780880451e+09	1.078361264531867981e+09	2.942332415883087540e+10
9.629562524599030379e-03	8.988478237209733963e+09	2.086176242691047668e+09	1.042986232731242776e+09	2.787288306725458145e+10
9.833633668047030499e-03	8.547129469950220108e+09	1.999911877573215246e+09	1.008796005005265355e+09	2.640318173128177261e+10
1.004202951798940403e-02	8.127413506815199852e+09	1.917245029324480057e+09	9.757582030754324198e+08	2.501062961674613571e+10
1.025484172425938229e-02	7.728612417152555466e+09	1.838085438722548723e+09	9.438532178185002804e+08	2.369240617708076859e+10
1.047216387894729824e-02	7.349284273103871346e+09	1.762208519667579174e+09	9.130151848043540716e+08	2.244308616148641586e+10
1.069409155756119272e-02	6.988417421708417892e+09	1.689472612091626644e+09	8.832072459672626257e+08	2.125900373440137863e+10
1.092072236105970547e-02	6.645241904016501427e+09	1.619764769859340906e+09	8.544001086522864103e+08	2.013705974808588409e+10
1.115215595877575537e-02	6.319169619603809357e+09	1.553009154780536413e+09	8.265773963232994080e+08	1.907502666815976334e+10
1.138849413224978825e-02	6.009012346408101082e+09	1.489020084936730385e+09	7.996826033670853376e+08	1.806856886863995743e+10
1.162984081999205582e-02	5.713951539768155098e+09	1.427670508346906900e+09	7.736795537454879284e+08	1.711457063060387230e+10
1.187630216319339981e-02	5.433358768492041588e+09	1.368876102864138126e+09	7.485482189781736135e+08	1.621082290942144775e+10
1.212798655240480798e-02	5.166752013908629417e+09	1.312565389582426548e+09	7.242711327120532990e+08	1.535529355922237206e+10
1.238500467520621366e-02	4.913152554687035561e+09	1.258584376707299709e+09	7.008012668420164585e+08	1.454455365990043449e+10
1.264746956488544717e-02	4.671898019719617844e+09	1.206828742968405485e+09	6.781075670060402155e+08	1.377613483409248734e+10
1.291549665014883955e-02	4.442475531188646317e+09	1.157220953190849543e+09	6.561689853551959991e+08	1.304810933698340988e+10
1.318920380588532899e-02	4.224489796718689442e+09	1.109710619582915545e+09	6.349754905661675930e+08	1.235908608660527039e+10
1.346871140500627631e-02	4.017135002737568855e+09	1.064158095897747636e+09	6.144814199765895605e+08	1.170606168806463432e+10
1.375414237138396570e-02	3.819875096450632572e+09	1.020482764462952375e+09	5.946640730254517794e+08	1.108719207485947227e+10
1.404562223391196511e-02	3.632291537815998554e+09	9.786177566195095778e+08	5.755041199649907351e+08	1.050087926406906128e+10
1.434327918171109106e-02	3.454059973104633331e+09	9.385168536026474237e+08	5.569903219548320770e+08	9.945932076146640778e+09
1.464724412050539583e-02	3.284517234881192207e+09	9.000679260093210936e+08	5.390860407665573359e+08	9.420067283089588165e+09
1.495765073019278586e-02	3.123229447779127598e+09	8.631974721805063486e+08	5.217684605830271244e+08	8.921660245104061127e+09
1.527463552363575450e-02	2.969855085782254696e+09	8.278557496602414846e+08	5.050248077351063490e+08	8.449545365528014183e+09
1.559833790669801906e-02	2.824127842350983143e+09	7.939999954963060617e+08	4.888435065483363867e+08	8.002680136441443443e+09
1.592890023955338338e-02	2.685502188831777096e+09	7.615357308879022598e+08	4.731923319369746447e+08	7.579226748584066391e+09
1.626646789929399317e-02	2.553626903241782665e+09	7.304032395144784451e+08	4.580524038768293858e+08	7.177936861143679619e+09
1.661118934386526108e-02	2.428223325751525402e+09	7.005570060750247240e+08	4.434105038193858266e+08	6.797794460958771706e+09
1.696321617735579643e-02	2.309072677893180847e+09	6.719657642548507452e+08	4.292595270832778811e+08	6.438033872719747543e+09
1.732270321667098503e-02	2.195726399973771095e+09	6.445453720906515121e+08	4.155693039491984844e+08	6.097092905711884499e+09
1.768980855961942850e-02	2.087900135597651482e+09	6.182489027181434631e+08	4.023251787933877707e+08	5.774024104551697731e+09
1.806469365444235767e-02	1.985366546627696276e+09	5.930368469651536942e+08	3.895146880178406239e+08	5.468002137178354263e+09
1.844752337081655841e-02	1.887945778916977167e+09	5.688824106377972364e+08	3.771314082106667161e+08	5.178389317116629601e+09
1.883846607236187159e-02	1.795269177444970131e+09	5.457158021311593056e+08	3.651498044729531407e+08	4.903946728480650902e+09
1.923769369068539445e-02	1.707106485457530260e+09	5.234961850405146480e+08	3.535564871312474012e+08	4.643880796662366867e+09
1.964538180099485026e-02	1.623272245175743103e+09	5.021924198433660865e+08	3.423420979521015286e+08	4.397564383873578072e+09
2.006170969931423895e-02	1.543618520893336535e+09	4.817796196673684716e+08	3.314994341037727594e+08	4.164458266400974274e+09
2.048686048133601528e-02	1.467842456287504435e+09	4.622002901351943016e+08	3.210070286254881620e+08	3.943573695852856159e+09
2.092102112294418406e-02	1.395757572413867474e+09	4.434192087883013487e+08	3.108526814044346213e+08	3.734264504128683567e+09
2.136438256244391209e-02	1.327212595692493916e+09	4.254115023350082040e+08	3.010291958916281462e+08	3.536031358866573334e+09
2.181713978453380873e-02	1.262085758987783432e+09	4.081553981464869976e+08	2.915300396723768711e+08	3.348441673727902889e+09
2.227949190605761978e-02	1.200128381108291864e+09	3.916019262438597083e+08	2.823362157308527231e+08	3.170688082920535088e+09
2.275164226357336353e-02	1.141189408770215750e+09	3.757225905122607350e+08	2.734375685984995961e+08	3.002263517741419315e+09
2.323379850277806913e-02	1.085145465511255264e+09	3.604949040264291167e+08	2.648268400773418546e+08	2.842748215325033665e+09
2.372617266982774559e-02	1.031896255861390948e+09	3.459024596470611095e+08	2.564996902128310204e+08	2.691811178025236130e+09
2.422898130459259780e-02	9.812376811435428858e+08	3.319021958033325672e+08	2.484385175786243975e+08	2.548790005794121265e+09
2.474244553588843265e-02	9.330473587200753689e+08	3.184713501365291476e+08	2.406354817178649902e+08	2.413283889779500961e+09
2.526679117872631872e-02	8.872246787233518362e+08	3.055905676418225169e+08	2.330837821307601631e+08	2.284951205399233818e+09
