# Data associated with arXiv:2208.14002
# 
# Scale-free velocity distribution, f(E), of a nfw0-7rhos8e6 dark matter distribution (see Eq. 2.7 and the surrounding discussion)
# 
# Published: 8/25/22, Jack Runburg and Kenny Kiriu, contact: runburg@hawaii.edu
# 
# 
# -----------------------------------------------------------------
# 
# 	 tilde E 		 | 		 tilde f
# 
# -----------------------------------------------------------------
1.057633743900253457e-07	5.670041407854988426e+07
1.080931456425551542e-07	5.476837958715488017e+07
1.104742383896981706e-07	5.285594086984702200e+07
1.129077831585096045e-07	5.097381017239283025e+07
1.153949353792337478e-07	4.915786342168104649e+07
1.179368759338502136e-07	4.737863033644339442e+07
1.205348117167074154e-07	4.566381561306230724e+07
1.231899762074995659e-07	4.401109194538391382e+07
1.259036300568685164e-07	4.241818382900504768e+07
1.286770616849012502e-07	4.088292258584231883e+07
1.315115878928092852e-07	3.940323563832183182e+07
1.344085544880843587e-07	3.797712869845791161e+07
1.373693369234184499e-07	3.660265293975826353e+07
1.403953409497019928e-07	3.527791604891476780e+07
1.434880032833990974e-07	3.400113255584490299e+07
1.466487922886274214e-07	3.277057506603461877e+07
1.498792086742577360e-07	3.158456476498148963e+07
1.531807862063670226e-07	3.044147334152164683e+07
1.565550924363878846e-07	2.933976016148652509e+07
1.600037294452893274e-07	2.827793992083358765e+07
1.635283346041552502e-07	2.725455035839352757e+07
1.671305813515077989e-07	2.626819751976159960e+07
1.708121799877578583e-07	2.531755169895868376e+07
1.745748784871493149e-07	2.440131644147242233e+07
1.784204633275858276e-07	2.351825035658110306e+07
1.823507603387395854e-07	2.266715611395367980e+07
1.863676355688322461e-07	2.184685868061064929e+07
1.904729961705141642e-07	2.105624915692726523e+07
1.946687913062473997e-07	2.029426568189288303e+07
1.989570130736372529e-07	1.955986371226755902e+07
2.033396974511354973e-07	1.885203690444600955e+07
2.078189252645804113e-07	1.816983239287190139e+07
2.123968231750191216e-07	1.751232701558538154e+07
2.170755646882854578e-07	1.687862093983371928e+07
2.218573711868195438e-07	1.626784893001138419e+07
2.267445129842030904e-07	1.567918180783820897e+07
2.317393104029297557e-07	1.511182492366907559e+07
2.368441348759025130e-07	1.456500504563094676e+07
2.420614100721999943e-07	1.403797333597422205e+07
2.473936130476297452e-07	1.353001713623904996e+07
2.528432754206216869e-07	1.304044936432050355e+07
2.584129845740254081e-07	1.256860173076765798e+07
2.641053848833651929e-07	1.211382988686261885e+07
2.699231789721569833e-07	1.167551666333846003e+07
2.758691289948603744e-07	1.125307071736156382e+07
2.819460579480961512e-07	1.084591527342153341e+07
2.881568510107341503e-07	1.045349323576464504e+07
2.945044569134940782e-07	1.007527472837932967e+07
3.009918893387165846e-07	9.710745937523135915e+06
3.076222283509501882e-07	9.359410010153772309e+06
3.143986218590562458e-07	9.020790309957182035e+06
3.213242871105011205e-07	8.694425515787746757e+06
3.284025122185682850e-07	8.379872000536062755e+06
3.356366577231964686e-07	8.076703080567711964e+06
3.430301581861898186e-07	7.784505912355772220e+06
3.505865238215687593e-07	7.502884091642339714e+06
3.583093421618101125e-07	7.231455140549554490e+06
3.662022797607969915e-07	6.969848989096150734e+06
3.742690839342558320e-07	6.717709573640522547e+06
3.825135845385357455e-07	6.474694805832128972e+06
3.909396957885498063e-07	6.240475549693197943e+06
3.995514181157511912e-07	6.014732988376324065e+06
4.083528400670340344e-07	5.797159297227138653e+06
4.173481402454363637e-07	5.587458938141270541e+06
4.265415892935962839e-07	5.385347717850662768e+06
4.359375519208692144e-07	5.190550807608462870e+06
4.455404889751007038e-07	5.002802793743856251e+06
4.553549595600113335e-07	4.821848947419681586e+06
4.653856231992065499e-07	4.647443599182015285e+06
4.756372420478532757e-07	4.479349304433108307e+06
4.861146831530390513e-07	4.317337601802291349e+06
4.968229207639260736e-07	4.161188563666849863e+06
5.077670386927546859e-07	4.010689915311165620e+06
5.189522327278562271e-07	3.865637090388837270e+06
5.303838130997872341e-07	3.725833193520770408e+06
5.420672070017666087e-07	3.591088002553483471e+06
5.540079611656272187e-07	3.461218435681804549e+06
5.662117444944667186e-07	3.336048122620091308e+06
5.786843507532903763e-07	3.215406811150236987e+06
5.914317013188773839e-07	3.099130722338649444e+06
6.044598479902179660e-07	2.987061956542131957e+06
6.177749758608189378e-07	2.879048077415381558e+06
6.313834062542527683e-07	2.774942136115736328e+06
6.452915997243589721e-07	2.674602965876023751e+06
6.595061591214823097e-07	2.577894372099801898e+06
6.740338327262486282e-07	2.484684627095170319e+06
6.888815174523140675e-07	2.394847167747147381e+06
7.040562621196577097e-07	2.308260085025294684e+06
7.195652707999269817e-07	2.224805713567066006e+06
7.354159062354382891e-07	2.144370575537629426e+06
7.516156933334737975e-07	2.066845354105720762e+06
7.681723227374839343e-07	1.992124878424371360e+06
7.850936544769474884e-07	1.920107618856047047e+06
8.023877216975578555e-07	1.850695670686225174e+06
8.200627344735648088e-07	1.783794804878238821e+06
8.381270837040297063e-07	1.719314134951093467e+06
8.565893450948598309e-07	1.657166051340660080e+06
8.754582832285337219e-07	1.597266179865041049e+06
8.947428557233881701e-07	1.539533106234785402e+06
9.144522174845128858e-07	1.483888409901003586e+06
9.345957250481900022e-07	1.430256596164950402e+06
9.551829410220114567e-07	1.378564755603142083e+06
9.762236386227223746e-07	1.328742666609544773e+06
9.977278063139596010e-07	1.280722734998545377e+06
1.019705652546112549e-06	1.234439711422372609e+06
1.042167610600490647e-06	1.189830720534779830e+06
1.065124343540166545e-06	1.146835213050313527e+06
1.088586749269766807e-06	1.105394792611633195e+06
1.112565965706680690e-06	1.065453187094847672e+06
1.137073376066078173e-06	1.026956160908745020e+06
1.162120614262263301e-06	9.898514315607647877e+05
1.187719570428954133e-06	9.540886344332407461e+05
1.213882396561030602e-06	9.196192004093286814e+05
1.240621512280515640e-06	8.863963252355281729e+05
1.267949610729427011e-06	8.543749191502812319e+05
1.295879664592382106e-06	8.235115043579298072e+05
1.324424932251736916e-06	7.937641782878543017e+05
1.353598964078201574e-06	7.650925542812581407e+05
1.383415608859948121e-06	7.374577184488500934e+05
1.413889020373172761e-06	7.108221511592405150e+05
1.445033664097330087e-06	6.851496945260737557e+05
1.476864324078106357e-06	6.604055090532928007e+05
1.509396109941496679e-06	6.365560074990349822e+05
1.542644464062217318e-06	6.135688196184058907e+05
1.576625168889878307e-06	5.914127508327942342e+05
1.611354354436435372e-06	5.700577212624090025e+05
1.646848505928357781e-06	5.494747544537398499e+05
1.683124471627271062e-06	5.296359285220281454e+05
1.720199470822635693e-06	5.105143150132441078e+05
1.758091102000385892e-06	4.920839644657284371e+05
1.796817351191283801e-06	4.743198720888611861e+05
1.836396600502984530e-06	4.571979324641245184e+05
1.876847636839901117e-06	4.406949131662338041e+05
1.918189660814879878e-06	4.247884334538690164e+05
1.960442295857050076e-06	4.094569134288154892e+05
2.003625597520004715e-06	3.946795448195324279e+05
2.047760062994881146e-06	3.804362829178200336e+05
2.092866640832674482e-06	3.667078138911339338e+05
2.138966740880557904e-06	3.534755177209493704e+05
2.186082244436751878e-06	3.407214437763951137e+05
2.234235514628865219e-06	3.284282911320211133e+05
2.283449407020577179e-06	3.165793903215479804e+05
2.333747280451634344e-06	3.051586740525243804e+05
2.385153008116409696e-06	2.941506530124678393e+05
2.437690988886114938e-06	2.835404020175728947e+05
2.491386158880151892e-06	2.733135367919208948e+05
2.546264003292001109e-06	2.634561889639286674e+05
2.602350568475269871e-06	2.539549921240583353e+05
2.659672474295628071e-06	2.447970688856556371e+05
2.718256926754406621e-06	2.359700037358254485e+05
2.778131730889963368e-06	2.274618305132584355e+05
2.839325303962752533e-06	2.192610195172984386e+05
2.901866688930465673e-06	2.113564532474499138e+05
2.965785568219550728e-06	2.037374186360377353e+05
3.031112277799628791e-06	1.963935927715545695e+05
3.097877821567497603e-06	1.893150223071844084e+05
3.166113886047431126e-06	1.824921155873214884e+05
3.235852855414881384e-06	1.759156288864468224e+05
3.307127826850499426e-06	1.695766511050422268e+05
3.379972626231876381e-06	1.634665948543639097e+05
3.454421824170355992e-06	1.575771838974401471e+05
3.530510752400494914e-06	1.519004396242044168e+05
3.608275520529971537e-06	1.464286738855719450e+05
3.687753033157730096e-06	1.411544761797028186e+05
3.768981007368661843e-06	1.360707031997373560e+05
3.851997990612811652e-06	1.311704708407605940e+05
3.936843378977854391e-06	1.264471442053668288e+05
4.023557435863189860e-06	1.218943277266221849e+05
4.112181311064696229e-06	1.175058578709311405e+05
4.202757060279046856e-06	1.132757939603237464e+05
4.295327665036764687e-06	1.091984100934050512e+05
4.389937053073604348e-06	1.052681876951770100e+05
4.486630119149598773e-06	1.014798072784709366e+05
4.585452746325926291e-06	9.782814211126712325e+04
4.686451827709333127e-06	9.430825128546467749e+04
4.789675288674584026e-06	9.091537191085283121e+04
4.895172109575384074e-06	8.764491390317300102e+04
5.002992348954354545e-06	8.449245314842880180e+04
5.113187167263298658e-06	8.145372521432972280e+04
5.225808851104560323e-06	7.852462043160595931e+04
5.340910838005350397e-06	7.570117745342724083e+04
5.458547741736310266e-06	7.297957801929193374e+04
5.578775378186559112e-06	7.035614227378206851e+04
5.701650791807276485e-06	6.782732345246220939e+04
5.827232282636317284e-06	6.538970300418052648e+04
5.955579433916663745e-06	6.303998606299980747e+04
6.086753140321552931e-06	6.077499673987236019e+04
6.220815636799904226e-06	5.859167405887936184e+04
6.357830528055256325e-06	5.648706783183616790e+04
6.497862818672426936e-06	5.445833466598318773e+04
6.640978943905900874e-06	5.250273376484002802e+04
6.787246801144536691e-06	5.061762342483624525e+04
6.936735782067414083e-06	4.880045772027095518e+04
7.089516805505824705e-06	4.704878263685535057e+04
7.245662351027211195e-06	4.536023276564151456e+04
7.405246493256437362e-06	4.373252841921309300e+04
7.568344936950912623e-06	4.216347234402539470e+04
7.735035052845892994e-06	4.065094662694659928e+04
7.905395914286843416e-06	3.919290987051810225e+04
8.079508334666234032e-06	3.778739465188053873e+04
8.257454905682093960e-06	3.643250461279605224e+04
8.439320036436765842e-06	3.512641192304879951e+04
8.625189993393758974e-06	3.386735485140734090e+04
8.815152941211872772e-06	3.265363536021027176e+04
9.009298984475608147e-06	3.148361679516998993e+04
9.207720210341523043e-06	3.035572164792890544e+04
9.410510732120644080e-06	2.926842943459920207e+04
9.617766733817169930e-06	2.822027468525727818e+04
9.829586515644914984e-06	2.720984487015689956e+04
1.004607054054219819e-05	2.623577839620393570e+04
1.026732148170760818e-05	2.529676307575845567e+04
1.049344427117863370e-05	2.439153405600840415e+04
1.072454614947611043e-05	2.351887220597633859e+04
1.096073671633781340e-05	2.267760245612033032e+04
1.120212798256473035e-05	2.186659218320860236e+04
1.144883442300493101e-05	2.108474971579489647e+04
1.170097303069916394e-05	2.033102281223359023e+04
1.195866337221420708e-05	1.960439728319500864e+04
1.222202764418952018e-05	1.890389558563107494e+04
1.249119073112393139e-05	1.822857547514299222e+04
1.276628026442941229e-05	1.757752874434493788e+04
1.304742668277936838e-05	1.694988002756242349e+04
1.333476329378033539e-05	1.634478558366650213e+04
1.362842633699517442e-05	1.576143214507088123e+04
1.392855504834795725e-05	1.519903581405733530e+04
1.423529172594035083e-05	1.465684102296863603e+04
1.454878179731039213e-05	1.413411950003498714e+04
1.486917388816527309e-05	1.363016927758149723e+04
1.519661989261984692e-05	1.314431374692308418e+04
1.553127504497456599e-05	1.267590072980761215e+04
1.587329799306535870e-05	1.222430160269372755e+04
1.622285087322067847e-05	1.178891045798187952e+04
1.658009938686016532e-05	1.136914323892976972e+04
1.694521287877100190e-05	1.096443705804330784e+04
1.731836441709856420e-05	1.057424925056216125e+04
1.769973087508826549e-05	1.019805681219572216e+04
1.808949301461775685e-05	9.835355606751389132e+03
1.848783557155709591e-05	9.485659706535107034e+03
1.889494734299821576e-05	9.148500718747738574e+03
1.931102127639308422e-05	8.823427165364448229e+03
1.973625456064299685e-05	8.510003867952171277e+03
2.017084871918124332e-05	8.207811360281040834e+03
2.061500970509204785e-05	7.916445309858968358e+03
2.106894799831127258e-05	7.635515986166908078e+03
2.153287870495255372e-05	7.364647717923397977e+03
2.200702165880685644e-05	7.103478401746548116e+03
2.249160152506117808e-05	6.851658995336940279e+03
2.298684790628567013e-05	6.608853054128207987e+03
2.349299545073828282e-05	6.374736273374630400e+03
2.401028396303659591e-05	6.148996054138677209e+03
2.453895851724972754e-05	5.931331073692309474e+03
2.507926957246110262e-05	5.721450880660287112e+03
2.563147309085751725e-05	5.519075498559627704e+03
2.619583065839783530e-05	5.323935059804706725e+03
2.677260960811839681e-05	5.135769424326680564e+03
2.736208314613178456e-05	4.954327837337037636e+03
2.796453048037765145e-05	4.779368608501625204e+03
2.858023695218533819e-05	4.610658686704434331e+03
2.920949417070858653e-05	4.447973539335464011e+03
2.985260015029610257e-05	4.291096653952934503e+03
3.050985945085981380e-05	4.139819343912297882e+03
3.118158332130708811e-05	3.993940450212427550e+03
3.186808984610280067e-05	3.853266062091954154e+03
3.256970409502889588e-05	3.717609261373529989e+03
3.328675827621124344e-05	3.586789866695375167e+03
3.401959189248330277e-05	3.460634190341391786e+03
3.476855190116080941e-05	3.338974809636973987e+03
3.553399287729879690e-05	3.221650328759722015e+03
3.631627718050838634e-05	3.108505171949758278e+03
3.711577512540907532e-05	2.999389369030739999e+03
3.793286515579540855e-05	2.894158352637711232e+03
3.876793402259864755e-05	2.792672763793045760e+03
3.962137696572420555e-05	2.694798263637320360e+03
4.049359789985064874e-05	2.600405353551514963e+03
4.138500960427313749e-05	2.509369197371479459e+03
4.229603391688078150e-05	2.421569455401740925e+03
4.322710193235571540e-05	2.336890122174789212e+03
4.417865420468556443e-05	2.255219368915772520e+03
4.515114095408182985e-05	2.176449393217741545e+03
4.614502227839961749e-05	2.100476273859691901e+03
4.716076836915477656e-05	2.027199829628319321e+03
4.819885973223850701e-05	1.956523486564672339e+03
4.925978741342950724e-05	1.888354145429164191e+03
5.034405322880767115e-05	1.822602057750484619e+03
5.145217000017378376e-05	1.759180704645669039e+03
5.258466179558373728e-05	1.698006679106972570e+03
5.374206417510666363e-05	1.638999576232264189e+03
5.492492444191873085e-05	1.582081882187262408e+03
5.613380189884800979e-05	1.527178871620978043e+03
5.736926811048661737e-05	1.474218505867088652e+03
5.863190717098991356e-05	1.423131338230638448e+03
5.992231597768425731e-05	1.373850417328117828e+03
6.124110451060803175e-05	1.326311199614803172e+03
6.258889611811287840e-05	1.280451461208725732e+03
6.396632780865512953e-05	1.236211214884306173e+03
6.537405054890867444e-05	1.193532629028308747e+03
6.681272956833618775e-05	1.152359950288518576e+03
6.828304467035520710e-05	1.112639428711384198e+03
6.978569055024067067e-05	1.074319244350132067e+03
7.132137711990728672e-05	1.037349439134490012e+03
7.289082983971879350e-05	1.001681849267010762e+03
7.449479005747402778e-05	9.672700401789115858e+02
7.613401535472156308e-05	9.340692446325072069e+02
7.780927990056110265e-05	9.020363021674238553e+02
7.952137481308890440e-05	8.711296020383614405e+02
8.127110852865080315e-05	8.413090264501329330e+02
8.305930717906893001e-05	8.125358974776082732e+02
8.488681497701070877e-05	7.847729240014834886e+02
8.675449460967425209e-05	7.579841536499199037e+02
8.866322764096472775e-05	7.321349230479034986e+02
9.061391492234365105e-05	7.071918118947721723e+02
9.260747701253383216e-05	6.831225982879732328e+02
9.464485460626740980e-05	6.598962146776499367e+02
9.672700897226864478e-05	6.374827083956113256e+02
9.885492240066653469e-05	6.158531992161407516e+02
1.010295986600370414e-04	5.949798419337705582e+02
1.032520634642764300e-04	5.748357888334124937e+02
1.055233649495158920e-04	5.553951540002817637e+02
1.078445741612865823e-04	5.366329782944465023e+02
1.102167855521524778e-04	5.185251964789943031e+02
1.126411174900306383e-04	5.010486042147439889e+02
1.151187127774237854e-04	4.841808289062121275e+02
1.176507391817953899e-04	4.679002970013687559e+02
1.202383899773186904e-04	4.521862078230378188e+02
1.228828844982414882e-04	4.370185042515111604e+02
1.255854687041075331e-04	4.223778467308036966e+02
1.283474157570844228e-04	4.082455870437600538e+02
1.311700266116501456e-04	3.946037435996033764e+02
1.340546306168973118e-04	3.814349775558472402e+02
1.370025861317180043e-04	3.687225697053039539e+02
1.400152811531390530e-04	3.564503977038850167e+02
1.430941339580795151e-04	3.446029155291633970e+02
1.462405937588124173e-04	3.331651319847360924e+02
1.494561413724144669e-04	3.221225911855636355e+02
1.527422899044942727e-04	3.114613530838722113e+02
1.561005854474955493e-04	3.011679753050637487e+02
1.595326077938778796e-04	2.912294946093122121e+02
1.630399711644835983e-04	2.816334104304361290e+02
1.666243249524021811e-04	2.723676678524153090e+02
1.702873544826567472e-04	2.634206415671727655e+02
1.740307817880355800e-04	2.547811207512629608e+02
1.778563664014035746e-04	2.464382938578355891e+02
1.817659061648313956e-04	2.383817345025068732e+02
1.857612380558898598e-04	2.306013875228384791e+02
1.898442390314617726e-04	2.230875558780645065e+02
1.940168268894276510e-04	2.158308874532850439e+02
1.982809611485969968e-04	2.088223630069337844e+02
2.026386439472534239e-04	2.020532840422826837e+02
2.070919209606967421e-04	1.955152613502638701e+02
2.116428823381682719e-04	1.892002040839810491e+02
2.162936636595551515e-04	1.831003086519724263e+02
2.210464469122764978e-04	1.772080491975165728e+02
2.259034614887582408e-04	1.715161663926938900e+02
2.308669852049196345e-04	1.660176594101376395e+02
2.359393453400924112e-04	1.607057753753815348e+02
2.411229196988084566e-04	1.555740013008426104e+02
2.464201376948962994e-04	1.506160550307072015e+02
2.518334814583369835e-04	1.458258773145043961e+02
2.573654869653384551e-04	1.411976235770854942e+02
2.630187451920902803e-04	1.367256563366379112e+02
2.687959032926803501e-04	1.324045378610097430e+02
2.746996658016526279e-04	1.282290229486898170e+02
2.807327958616996849e-04	1.241940516526373557e+02
2.868981169291277876e-04	1.202947437678845262e+02
2.931985122990746293e-04	1.165263913050089144e+02
2.996369289675699580e-04	1.128844527675130109e+02
3.062163773078572637e-04	1.093645469774666026e+02
3.129399328347358140e-04	1.059624477844721042e+02
3.198107375939202566e-04	1.026740781908365392e+02
3.268320015802374506e-04	9.949550511859230539e+01
3.340070041852300593e-04	9.642293419869156423e+01
3.413390956747467905e-04	9.345270500298555305e+01
3.488316986971014451e-04	9.058128607211976657e+01
3.564883098224058688e-04	8.780527037124321055e+01
3.643125011136738763e-04	8.512137093616567540e+01
3.723079217303269361e-04	8.252641649137063951e+01
3.804782995647197760e-04	8.001734737264169439e+01
3.888274429123319826e-04	7.759121151259421367e+01
3.973592421762721610e-04	7.524516074328521142e+01
4.060776716067562332e-04	7.297644683132348575e+01
4.149867910762363105e-04	7.078241817073372033e+01
4.240907478908523438e-04	6.866051627659854262e+01
4.333937786389135613e-04	6.660827235238643595e+01
4.429002110771079726e-04	6.462330427469646565e+01
4.526144660551567611e-04	6.270331337660381621e+01
4.625410594796449662e-04	6.084608154275317560e+01
4.726846043177653335e-04	5.904946836358246998e+01
4.830498126417320532e-04	5.731140829384931124e+01
4.936414977146182841e-04	5.562990807597312681e+01
5.044645761184043259e-04	5.400304415233737387e+01
5.155240699250157078e-04	5.242896013611606776e+01
