# Data associated with arXiv:2208.14002
# 
# Scale-free velocity distribution, f(E), of a nfw0-7rhos4e6 dark matter distribution (see Eq. 2.7 and the surrounding discussion)
# 
# Published: 8/25/22, Jack Runburg and Kenny Kiriu, contact: runburg@hawaii.edu
# 
# 
# -----------------------------------------------------------------
# 
# 	 tilde E 		 | 		 tilde f
# 
# -----------------------------------------------------------------
1.057633743900253457e-07	2.005603658639553934e+07
1.080931456425551542e-07	1.937267875658164546e+07
1.104742383896981706e-07	1.869625194633530080e+07
1.129077831585096045e-07	1.803054481392700598e+07
1.153949353792337478e-07	1.738824641660465300e+07
1.179368759338502136e-07	1.675893195898214914e+07
1.205348117167074154e-07	1.615240100074100681e+07
1.231899762074995659e-07	1.556783046041060612e+07
1.259036300568685164e-07	1.500441556953826919e+07
1.286770616849012502e-07	1.446138934283293225e+07
1.315115878928092852e-07	1.393801878982533142e+07
1.344085544880843587e-07	1.343359859064250439e+07
1.373693369234184499e-07	1.294743952289166674e+07
1.403953409497019928e-07	1.247887233372552134e+07
1.434880032833990974e-07	1.202726555137569644e+07
1.466487922886274214e-07	1.159200827043506689e+07
1.498792086742577360e-07	1.117250673394315876e+07
1.531807862063670226e-07	1.076818506530465186e+07
1.565550924363878846e-07	1.037849838715929538e+07
1.600037294452893274e-07	1.000292139821204171e+07
1.635283346041552502e-07	9.640936919105259702e+06
1.671305813515077989e-07	9.292051973566122353e+06
1.708121799877578583e-07	8.955796267036093399e+06
1.745748784871493149e-07	8.631711285838445649e+06
1.784204633275858276e-07	8.319357976101528853e+06
1.823507603387395854e-07	8.018312893080662005e+06
1.863676355688322461e-07	7.728160436124077067e+06
1.904729961705141642e-07	7.448508424093994312e+06
1.946687913062473997e-07	7.178981301673262380e+06
1.989570130736372529e-07	6.919209640345768072e+06
2.033396974511354973e-07	6.668837524944623932e+06
2.078189252645804113e-07	6.427527931029997766e+06
2.123968231750191216e-07	6.194954376220057718e+06
2.170755646882854578e-07	5.970798600292731076e+06
2.218573711868195438e-07	5.754754587265100330e+06
2.267445129842030904e-07	5.546529074704171158e+06
2.317393104029297557e-07	5.345841012613754719e+06
2.368441348759025130e-07	5.152416921883624978e+06
2.420614100721999943e-07	4.965991943516961299e+06
2.473936130476297452e-07	4.786314044204660691e+06
2.528432754206216869e-07	4.613140196857154369e+06
2.584129845740254081e-07	4.446234043711161241e+06
2.641053848833651929e-07	4.285367686535065994e+06
2.699231789721569833e-07	4.130322846468363889e+06
2.758691289948603744e-07	3.980890371177154128e+06
2.819460579480961512e-07	3.836866263362196274e+06
2.881568510107341503e-07	3.698053483720679302e+06
2.945044569134940782e-07	3.564264624476896599e+06
3.009918893387165846e-07	3.435317954937460367e+06
3.076222283509501882e-07	3.311037741882919334e+06
3.143986218590562458e-07	3.191255408394627739e+06
3.213242871105011205e-07	3.075807785717084073e+06
3.284025122185682850e-07	2.964537968122949358e+06
3.356366577231964686e-07	2.857295039670378901e+06
3.430301581861898186e-07	2.753932983088198118e+06
3.505865238215687593e-07	2.654311592356021516e+06
3.583093421618101125e-07	2.558295586528698448e+06
3.662022797607969915e-07	2.465754074145670515e+06
3.742690839342558320e-07	2.376561117903497070e+06
3.825135845385357455e-07	2.290595720388263930e+06
3.909396957885498063e-07	2.207741470466970000e+06
3.995514181157511912e-07	2.127885601887485478e+06
4.083528400670340344e-07	2.050919238118825248e+06
4.173481402454363637e-07	1.976737845848514698e+06
4.265415892935962839e-07	1.905240908144220477e+06
4.359375519208692144e-07	1.836331216652040603e+06
4.455404889751007038e-07	1.769914895515348995e+06
4.553549595600113335e-07	1.705901845420829020e+06
4.653856231992065499e-07	1.644205173546606209e+06
4.756372420478532757e-07	1.584740894413822098e+06
4.861146831530390513e-07	1.527428198621603427e+06
4.968229207639260736e-07	1.472189302528254688e+06
5.077670386927546859e-07	1.418949115428527817e+06
5.189522327278562271e-07	1.367635286191402469e+06
5.303838130997872341e-07	1.318178169719723985e+06
5.420672070017666087e-07	1.270510487940757768e+06
5.540079611656272187e-07	1.224567469575084746e+06
5.662117444944667186e-07	1.180286744575825520e+06
5.786843507532903763e-07	1.137608087859142106e+06
5.914317013188773839e-07	1.096473569683749694e+06
6.044598479902179660e-07	1.056827338594872504e+06
6.177749758608189378e-07	1.018615476134247030e+06
6.313834062542527683e-07	9.817860043391439831e+05
6.452915997243589721e-07	9.462889907059881371e+05
6.595061591214823097e-07	9.120762611597501673e+05
6.740338327262486282e-07	8.791012212026516208e+05
6.888815174523140675e-07	8.473191038320017979e+05
7.040562621196577097e-07	8.166867875294813421e+05
7.195652707999269817e-07	7.871626518032344757e+05
7.354159062354382891e-07	7.587065573369163321e+05
7.516156933334737975e-07	7.312798369451073231e+05
7.681723227374839343e-07	7.048452885562905576e+05
7.850936544769474884e-07	6.793669999222543556e+05
8.023877216975578555e-07	6.548103401950510452e+05
8.200627344735648088e-07	6.311419766118980478e+05
8.381270837040297063e-07	6.083297623114188900e+05
8.565893450948598309e-07	5.863427064871101175e+05
8.754582832285337219e-07	5.651509644262727816e+05
8.947428557233881701e-07	5.447257372712105280e+05
9.144522174845128858e-07	5.250392857736758888e+05
9.345957250481900022e-07	5.060649052214259864e+05
9.551829410220114567e-07	4.877768054459615960e+05
9.762236386227223746e-07	4.701501466928341542e+05
9.977278063139596010e-07	4.531610192298517795e+05
1.019705652546112549e-06	4.367863417182522244e+05
1.042167610600490647e-06	4.210038734576845891e+05
1.065124343540166545e-06	4.057921959236562834e+05
1.088586749269766807e-06	3.911306523503667559e+05
1.112565965706680690e-06	3.769993374435661244e+05
1.137073376066078173e-06	3.633790658021439449e+05
1.162120614262263301e-06	3.502513432694536750e+05
1.187719570428954133e-06	3.375983539439351880e+05
1.213882396561030602e-06	3.254029169699124177e+05
1.240621512280515640e-06	3.136484759285223554e+05
1.267949610729427011e-06	3.023190804689322249e+05
1.295879664592382106e-06	2.913993508078864543e+05
1.324424932251736916e-06	2.808744642008594819e+05
1.353598964078201574e-06	2.707301340119270026e+05
1.383415608859948121e-06	2.609525941678012314e+05
1.413889020373172761e-06	2.515285738961404131e+05
1.445033664097330087e-06	2.424452807532776205e+05
1.476864324078106357e-06	2.336903908837293857e+05
1.509396109941496679e-06	2.252520228831411514e+05
1.542644464062217318e-06	2.171187256997942168e+05
1.576625168889878307e-06	2.092794643682014430e+05
1.611354354436435372e-06	2.017235979037026118e+05
1.646848505928357781e-06	1.944408756893236132e+05
1.683124471627271062e-06	1.874214205230516382e+05
1.720199470822635693e-06	1.806557061510847125e+05
1.758091102000385892e-06	1.741345529915790539e+05
1.796817351191283801e-06	1.678491151846871362e+05
1.836396600502984530e-06	1.617908653450660640e+05
1.876847636839901117e-06	1.559515848533698299e+05
1.918189660814879878e-06	1.503233561794456327e+05
1.960442295857050076e-06	1.448985453392827185e+05
2.003625597520004715e-06	1.396697909189426282e+05
2.047760062994881146e-06	1.346300016855447902e+05
2.092866640832674482e-06	1.297723458349702560e+05
2.138966740880557904e-06	1.250902356180636998e+05
2.186082244436751878e-06	1.205773208748053003e+05
2.234235514628865219e-06	1.162274810403275187e+05
2.283449407020577179e-06	1.120348190669073374e+05
2.333747280451634344e-06	1.079936507706442790e+05
2.385153008116409696e-06	1.040984965247196524e+05
2.437690988886114938e-06	1.003440761539427331e+05
2.491386158880151892e-06	9.672530101463143365e+04
2.546264003292001109e-06	9.323726470943987078e+04
2.602350568475269871e-06	8.987523857444438909e+04
2.659672474295628071e-06	8.663466689603004488e+04
2.718256926754406621e-06	8.351115732232545270e+04
2.778131730889963368e-06	8.050047649486079172e+04
2.839325303962752533e-06	7.759854547152118175e+04
2.901866688930465673e-06	7.480143110126192914e+04
2.965785568219550728e-06	7.210534322659556346e+04
3.031112277799628791e-06	6.950662979704480676e+04
3.097877821567497603e-06	6.700176949350716313e+04
3.166113886047431126e-06	6.458736890312094329e+04
3.235852855414881384e-06	6.226015772667633428e+04
3.307127826850499426e-06	6.001698334001057083e+04
3.379972626231876381e-06	5.785480759493390360e+04
3.454421824170355992e-06	5.577070238951634383e+04
3.530510752400494914e-06	5.376184515847662260e+04
3.608275520529971537e-06	5.182551569458712765e+04
3.687753033157730096e-06	4.995909225989662809e+04
3.768981007368661843e-06	4.816004757327288826e+04
3.851997990612811652e-06	4.642594610238256428e+04
3.936843378977854391e-06	4.475444050142011110e+04
4.023557435863189860e-06	4.314326776311066351e+04
4.112181311064696229e-06	4.159024750113012124e+04
4.202757060279046856e-06	4.009327780155789515e+04
4.295327665036764687e-06	3.865033283350573765e+04
4.389937053073604348e-06	3.725946010132678202e+04
4.486630119149598773e-06	3.591877753356444737e+04
4.585452746325926291e-06	3.462647127630522300e+04
4.686451827709333127e-06	3.338079318813985446e+04
4.789675288674584026e-06	3.218005811581994203e+04
4.895172109575384074e-06	3.102264205571852654e+04
5.002992348954354545e-06	2.990697968990217123e+04
5.113187167263298658e-06	2.883156219791077456e+04
5.225808851104560323e-06	2.779493554591543216e+04
5.340910838005350397e-06	2.679569813156508462e+04
5.458547741736310266e-06	2.583249901400789895e+04
5.578775378186559112e-06	2.490403617077494710e+04
5.701650791807276485e-06	2.400905468889623808e+04
5.827232282636317284e-06	2.314634502162480203e+04
5.955579433916663745e-06	2.231474137127748327e+04
6.086753140321552931e-06	2.151312002931956158e+04
6.220815636799904226e-06	2.074039795385691104e+04
6.357830528055256325e-06	1.999553129478454503e+04
6.497862818672426936e-06	1.927751396884486530e+04
6.640978943905900874e-06	1.858537620418387087e+04
6.787246801144536691e-06	1.791818330625078306e+04
6.936735782067414083e-06	1.727503442529729000e+04
7.089516805505824705e-06	1.665506125446737497e+04
7.245662351027211195e-06	1.605742683723735900e+04
7.405246493256437362e-06	1.548132452583189115e+04
7.568344936950912623e-06	1.492597685954074223e+04
7.735035052845892994e-06	1.439063443016945166e+04
7.905395914286843416e-06	1.387457492698050737e+04
8.079508334666234032e-06	1.337710217742277200e+04
8.257454905682093960e-06	1.289754517099166151e+04
8.439320036436765842e-06	1.243525714897311263e+04
8.625189993393758974e-06	1.198961471656330650e+04
8.815152941211872772e-06	1.156001703504581019e+04
9.009298984475608147e-06	1.114588497618604561e+04
9.207720210341523043e-06	1.074666033590848565e+04
9.410510732120644080e-06	1.036180508791294596e+04
9.617766733817169930e-06	9.990800671864024480e+03
9.829586515644914984e-06	9.633147248067203691e+03
1.004607054054219819e-05	9.288363035867256258e+03
1.026732148170760818e-05	8.955983677919086404e+03
1.049344427117863370e-05	8.635561602259282154e+03
1.072454614947611043e-05	8.326665410240213532e+03
1.096073671633781340e-05	8.028879283030924853e+03
1.120212798256473035e-05	7.741802430689102948e+03
1.144883442300493101e-05	7.465048542624244874e+03
1.170097303069916394e-05	7.198245270590041400e+03
1.195866337221420708e-05	6.941033722448494700e+03
1.222202764418952018e-05	6.693067973797657032e+03
1.249119073112393139e-05	6.454014589770014027e+03
1.276628026442941229e-05	6.223552181520798513e+03
1.304742668277936838e-05	6.001370978704650042e+03
1.333476329378033539e-05	5.787172400773310983e+03
1.362842633699517442e-05	5.580668647295273331e+03
1.392855504834795725e-05	5.381582315859663140e+03
1.423529172594035083e-05	5.189646021951263720e+03
1.454878179731039213e-05	5.004602043093243083e+03
1.486917388816527309e-05	4.826201964430115368e+03
1.519661989261984692e-05	4.654206340341924260e+03
1.553127504497456599e-05	4.488384375413884300e+03
1.587329799306535870e-05	4.328513604050099275e+03
1.622285087322067847e-05	4.174379600880365615e+03
1.658009938686016532e-05	4.025775678074187454e+03
1.694521287877100190e-05	3.882502615081236399e+03
1.731836441709856420e-05	3.744368380478721519e+03
1.769973087508826549e-05	3.611187880752066576e+03
1.808949301461775685e-05	3.482782698572355002e+03
1.848783557155709591e-05	3.358980864268420191e+03
1.889494734299821576e-05	3.239616611133551487e+03
1.931102127639308422e-05	3.124530159875587742e+03
1.973625456064299685e-05	3.013567495323222829e+03
2.017084871918124332e-05	2.906580167838291345e+03
2.061500970509204785e-05	2.803425077261450042e+03
2.106894799831127258e-05	2.703964290343671564e+03
2.153287870495255372e-05	2.608064858288612413e+03
2.200702165880685644e-05	2.515598621031550010e+03
2.249160152506117808e-05	2.426442047387949060e+03
2.298684790628567013e-05	2.340476063357087241e+03
2.349299545073828282e-05	2.257585890545382426e+03
2.401028396303659591e-05	2.177660891817830816e+03
2.453895851724972754e-05	2.100594421330784371e+03
2.507926957246110262e-05	2.026283680443335925e+03
2.563147309085751725e-05	1.954629577918642326e+03
2.619583065839783530e-05	1.885536598209429940e+03
2.677260960811839681e-05	1.818912668921944487e+03
2.736208314613178456e-05	1.754669040093941931e+03
2.796453048037765145e-05	1.692720160550416949e+03
2.858023695218533819e-05	1.632983565407629158e+03
2.920949417070858653e-05	1.575379762371620473e+03
2.985260015029610257e-05	1.519832125828274684e+03
3.050985945085981380e-05	1.466266792076411093e+03
3.118158332130708811e-05	1.414612560448501654e+03
3.186808984610280067e-05	1.364800797961854869e+03
3.256970409502889588e-05	1.316765348586706523e+03
3.328675827621124344e-05	1.270442421999087173e+03
3.401959189248330277e-05	1.225770555827226190e+03
3.476855190116080941e-05	1.182690483546269434e+03
3.553399287729879690e-05	1.141145079020451476e+03
3.631627718050838634e-05	1.101079273565256244e+03
3.711577512540907532e-05	1.062439983416076529e+03
3.793286515579540855e-05	1.025176036922638787e+03
3.876793402259864755e-05	9.892381054724424985e+02
3.962137696572420555e-05	9.545786370392229401e+02
4.049359789985064874e-05	9.211517928229337713e+02
4.138500960427313749e-05	8.889133843019657206e+02
4.229603391688078150e-05	8.578208131821589859e+02
4.322710193235571540e-05	8.278330184666117475e+02
4.417865420468556443e-05	7.989104128156792513e+02
4.515114095408182985e-05	7.710148365068570229e+02
4.614502227839961749e-05	7.441095031899670857e+02
4.716076836915477656e-05	7.181589504414249632e+02
4.819885973223850701e-05	6.931289914449836260e+02
4.925978741342950724e-05	6.689866706395492884e+02
5.034405322880767115e-05	6.457002171432611703e+02
5.145217000017378376e-05	6.232390038592095607e+02
5.258466179558373728e-05	6.015735049687009450e+02
5.374206417510666363e-05	5.806752570432503262e+02
5.492492444191873085e-05	5.605168202078461945e+02
5.613380189884800979e-05	5.410717409773570807e+02
5.736926811048661737e-05	5.223145176436274824e+02
5.863190717098991356e-05	5.042205650785765556e+02
5.992231597768425731e-05	4.867661818685022581e+02
6.124110451060803175e-05	4.699285187801221468e+02
6.258889611811287840e-05	4.536855476673218277e+02
6.396632780865512953e-05	4.380160314115550477e+02
6.537405054890867444e-05	4.228994971069575968e+02
6.681272956833618775e-05	4.083162065879756142e+02
6.828304467035520710e-05	3.942471307829669627e+02
6.978569055024067067e-05	3.806739242655527846e+02
7.132137711990728672e-05	3.675789001892093211e+02
7.289082983971879350e-05	3.549450070616717881e+02
7.449479005747402778e-05	3.427558055444438878e+02
7.613401535472156308e-05	3.309954459804064300e+02
7.780927990056110265e-05	3.196486485851577299e+02
7.952137481308890440e-05	3.087006807709278746e+02
8.127110852865080315e-05	2.981373391141040656e+02
8.305930717906893001e-05	2.879449298711369920e+02
8.488681497701070877e-05	2.781102502765797340e+02
8.675449460967425209e-05	2.686205711481804315e+02
8.866322764096472775e-05	2.594636198888646277e+02
9.061391492234365105e-05	2.506275636357445933e+02
9.260747701253383216e-05	2.421009939535293825e+02
9.464485460626740980e-05	2.338729111974127477e+02
9.672700897226864478e-05	2.259327098908833875e+02
9.885492240066653469e-05	2.182701646665119313e+02
1.010295986600370414e-04	2.108754162733387432e+02
1.032520634642764300e-04	2.037389587468077536e+02
1.055233649495158920e-04	1.968516264874632213e+02
1.078445741612865823e-04	1.902045820161439735e+02
1.102167855521524778e-04	1.837893042231552840e+02
1.126411174900306383e-04	1.775975771115652435e+02
1.151187127774237854e-04	1.716214784042194594e+02
1.176507391817953899e-04	1.658533695293005792e+02
1.202383899773186904e-04	1.602858849889893804e+02
1.228828844982414882e-04	1.549119227448358629e+02
1.255854687041075331e-04	1.497246347025895261e+02
1.283474157570844228e-04	1.447174175698162628e+02
1.311700266116501456e-04	1.398839039128132811e+02
1.340546306168973118e-04	1.352179540568186553e+02
1.370025861317180043e-04	1.307136475415840096e+02
1.400152811531390530e-04	1.263652753976429040e+02
1.430941339580795151e-04	1.221673323769422410e+02
1.462405937588124173e-04	1.181145100107811743e+02
1.494561413724144669e-04	1.142016891091738131e+02
1.527422899044942727e-04	1.104239332740519330e+02
1.561005854474955493e-04	1.067764821096202184e+02
1.595326077938778796e-04	1.032547450805034828e+02
1.630399711644835983e-04	9.985429531540945902e+01
1.666243249524021811e-04	9.657086374185405475e+01
1.702873544826567472e-04	9.340033345531126940e+01
1.740307817880355800e-04	9.033873420785904784e+01
1.778563664014035746e-04	8.738223723224263040e+01
1.817659061648313956e-04	8.452715004579944491e+01
1.857612380558898598e-04	8.176991165485655699e+01
1.898442390314617726e-04	7.910708779784519606e+01
1.940168268894276510e-04	7.653536640746594344e+01
1.982809611485969968e-04	7.405155324763427416e+01
2.026386439472534239e-04	7.165256766605479299e+01
2.070919209606967421e-04	6.933543850119353635e+01
2.116428823381682719e-04	6.709730023198058291e+01
2.162936636595551515e-04	6.493538909473727472e+01
2.210464469122764978e-04	6.284703958517293643e+01
2.259034614887582408e-04	6.082968071015175582e+01
2.308669852049196345e-04	5.888083282851202682e+01
2.359393453400924112e-04	5.699810426302090605e+01
2.411229196988084566e-04	5.517918816741910604e+01
2.464201376948962994e-04	5.342185952807336946e+01
2.518334814583369835e-04	5.172397215872462084e+01
2.573654869653384551e-04	5.008345595810060757e+01
2.630187451920902803e-04	4.849831412392357777e+01
2.687959032926803501e-04	4.696662063455457314e+01
2.746996658016526279e-04	4.548651756271002000e+01
2.807327958616996849e-04	4.405621276081608073e+01
2.868981169291277876e-04	4.267397748119059742e+01
2.931985122990746293e-04	4.133814412421758533e+01
2.996369289675699580e-04	4.004710398941088556e+01
3.062163773078572637e-04	3.879930519502510577e+01
3.129399328347358140e-04	3.759325078971630063e+01
3.198107375939202566e-04	3.642749650400688211e+01
3.268320015802374506e-04	3.530064915134009595e+01
3.340070041852300593e-04	3.421136464920743947e+01
3.413390956747468447e-04	3.315834630856242882e+01
3.488316986971014451e-04	3.214034315135121744e+01
3.564883098224058688e-04	3.115614827191460989e+01
3.643125011136738763e-04	3.020459724442743621e+01
3.723079217303269361e-04	2.928456666632555994e+01
3.804782995647197760e-04	2.839497261252909155e+01
3.888274429123319826e-04	2.753476931733486666e+01
3.973592421762721610e-04	2.670294773961270707e+01
4.060776716067562332e-04	2.589853430548202340e+01
4.149867910762363105e-04	2.512058966272925531e+01
4.240907478908523438e-04	2.436820734957293411e+01
4.333937786389135613e-04	2.364051277646559512e+01
4.429002110771079726e-04	2.293666198418217306e+01
4.526144660551567611e-04	2.225584060508363748e+01
4.625410594796449662e-04	2.159726279345865407e+01
4.726846043177653335e-04	2.096017021450749240e+01
4.830498126417320532e-04	2.034383107252537570e+01
4.936414977146182841e-04	1.974753916138514853e+01
5.044645761184043259e-04	1.917061294333118582e+01
5.155240699250157078e-04	1.861239472036670151e+01
